1.0 0.0
0.9998494093481021 2.0016427921150774e-05
0.9993977281025862 8.009844655032691e-05
0.998645228339345 0.0001803426275512643
0.9975923633360985 0.000320905302839144
0.9962397672993549 0.0005019983607919776
0.9945882549823906 0.000723888295884283
0.9926388211944706 0.0009869023087617594
0.9903926402016152 0.001291444897401125
0.9878510650192642 0.0016380272393690062
0.985015626597272 0.0020273098471127408
0.98188803289772 0.0024601566972883636
0.9784701678661044 0.002937696588605558
0.9747640902965183 0.003461385213723451
0.9707720325915102 0.004033059684531128
0.9664963994173694 0.0046549763281681835
0.9619397662556433 0.005329822689419708
0.9571048778517655 0.00606069593179964
0.9519946465617215 0.006851042186130301
0.9466121505977576 0.007704554673871444
0.9409606321741775 0.00862503233034006
0.9350434955543556 0.009616204773528557
0.928864305000136 0.010681533359552957
0.9224267826248536 0.011824001287543533
0.9157348061512727 0.013045907869114885
0.9087924065757916 0.014348682865244402
0.9016037657403225 0.015732736060161543
0.894173213813303 0.0171973549934174
0.8865052266813687 0.018740660180312264
0.8786044232532422 0.020359622542647178
0.8704755626774794 0.02205014259201305
0.8621235414757333 0.023807185675655176
0.8535533905932737 0.02562496284627218
0.8447702723685334 0.02749714314503872
0.8357794774235092 0.02941708068587392
0.8265864214768883 0.0313780391481016
0.8171966420818224 0.03337339719915557
0.8076157952903136 0.03539682086889477
0.7978496522462164 0.03744239269817762
0.7879040957089227 0.03950469215909689
0.7777851165098009 0.04157882686988903
0.7674988099435485 0.04366041894543522
0.7570513720966108 0.045745554904717003
0.746449096114892 0.04783071046034299
0.7356983684129987 0.04991266294564565
0.7248056648273034 0.05198840397321885
0.713777546715141 0.054055063239484204
0.7026206570024947 0.05610985145214209
0.691341716182545 0.05815002657479927
0.6799475182674938 0.06017288347397159
0.6684449266961098 0.06217576317765817
0.6568408701994456 0.06415607484300778
0.645142338627231 0.06611132161822234
0.6333563787374491 0.0680391211519112
0.6214900899516319 0.06993721263867421
0.6095506200784349 0.07180344486846499
0.5975451610080642 0.07363574344208598
0.5854809443801506 0.07543205963000425
0.5733652372276805 0.07719030767834183
0.5612053375996082 0.07890830105702254
0.54900857016478 0.0805837005955453
0.5367822817998334 0.08221398817914569
0.5245338371637088 0.08379647839167444
0.512270614261456 0.08532837714253148
0.4999999999999999 0.08680689111950733
0.4877293857385438 0.08822938534064875
0.475466162836291 0.08959357882770552
0.46321771820016633 0.09089776133327414
0.4509914298352198 0.09214100802618805
0.43879466240039156 0.09332336493576733
0.42663476277231926 0.09444597648953938
0.41451905561984914 0.0955111281243378
0.4024548389919357 0.09652218186670851
0.3904493799215649 0.09748339076872951
0.3785099100483679 0.09839958859237977
0.36664362126255073 0.09927576327676793
0.35485766137276875 0.10011653536331575
0.3431591298005543 0.10092557441390887
0.33155507330389 0.10170499623792924
0.320052481732506 0.102454790268042
0.30865828381745486 0.10317232876700022
0.29737934299750524 0.10385200715084096
0.28622245328485874 0.10448505746792112
0.27519433517269654 0.10505956535460405
0.26430163158700104 0.1055607054485785
0.2535509038851079 0.10597119254529958
0.2429486279033891 0.10627192730419266
0.23250119005645137 0.10644279778371768
0.2222148834901989 0.10646358323727131
0.2120959042910774 0.10631489598357086
0.20215034775378343 0.10597909197872442
0.19238420470968637 0.10544108168407586
0.18280335791817703 0.10468898009063955
0.17341357852311146 0.10371454786054742
0.16422052257649067 0.1025133934199074
0.15522972763146647 0.10108492691831596
0.14644660940672616 0.09943207931862831
0.1378764585242665 0.09756082136469539
0.12952443732252045 0.09547953567579354
0.12139557674675777 0.09319830883966546
0.11349477331863145 0.09072821764676367
0.10582678618669683 0.08808068363230939
0.09839623425967753 0.08526696266437689
0.09120759342420814 0.08229782196062056
0.08426519384872727 0.07918343686105814
0.07757321737514639 0.07593351576009041
0.07113569499986394 0.0725576360792121
0.06495650444564427 0.06906574954479085
0.059039367825822475 0.06546879381626722
0.05338784940224234 0.06177933192882771
0.048005353438278275 0.05801213282992823
0.042895122148234655 0.054184606593253595
0.038060233744356575 0.05031701698674251
0.03350360058263052 0.046432411409280616
0.029227967408489597 0.042556232434987296
0.025235909703481607 0.03871560425040646
0.021529832133895532 0.03493831854807753
0.018111967102280024 0.03125157506811607
0.014984373402728013 0.02768055905187492
0.012148934980735715 0.02424695873420838
0.009607359798384785 0.020967538507253677
0.007361178805529334 0.017852886114114747
0.005411745017609493 0.014906444620030376
0.0037602327006450165 0.01212392234384642
0.0024076366639015356 0.009493147714640203
0.0013547716606548965 0.006994403260101187
0.0006022718974137975 0.004601236376147029
0.00015059065189787502 0.0022817072962802174
0.0 0.0
0.00015059065189787502 -0.001933700355196248
0.0006022718974137975 -0.0038600099666797065
0.0013547716606548965 -0.005771840911146814
0.0024076366639015356 -0.0076626838162035665
0.0037602327006450165 -0.009526831813157466
0.005411745017609493 -0.011359532625763212
0.007361178805529334 -0.013157055120347521
0.009607359798384785 -0.014916664321135663
0.012148934980735715 -0.016636507185732854
0.014984373402728013 -0.018315419628955252
0.018111967102280024 -0.019952672669760897
0.021529832133895532 -0.02154768150771122
0.025235909703481607 -0.023099705278948807
0.029227967408489597 -0.024607566824354193
0.03350360058263052 -0.02606942084491123
0.038060233744356575 -0.027482595352800048
0.042895122148234655 -0.028843525594040645
0.048005353438278275 -0.03014779205678034
0.05338784940224234 -0.03139026538711813
0.059039367825822475 -0.0325653517249121
0.06495650444564427 -0.033667322916248445
0.07113569499986394 -0.03469070802316673
0.07757321737514639 -0.035630716232572586
0.08426519384872727 -0.03648365723563948
0.09120759342420814 -0.03724732380039906
0.09839623425967753 -0.037921302775126585
0.10582678618669683 -0.038507185088418126
0.11349477331863145 -0.03900865217140236
0.12139557674675777 -0.03943142512288808
0.12952443732252045 -0.03978307319722919
0.1378764585242665 -0.040072689020202425
0.14644660940672616 -0.040310448471264186
0.15522972763146647 -0.040507082559595516
0.16422052257649067 -0.040673296092025
0.17341357852311146 -0.04081917285079729
0.18280335791817703 -0.04095360893168956
0.19238420470968637 -0.04108381463619994
0.20215034775378343 -0.041214920917886866
0.2120959042910774 -0.041349719158400314
0.2222148834901989 -0.0414885535309337
0.23250119005645137 -0.041629374125627755
0.2429486279033891 -0.0417679472234834
0.2535509038851079 -0.04189820753662048
0.26430163158700104 -0.04201272679559755
0.27519433517269654 -0.04210326458474446
0.28622245328485874 -0.04216136147500228
0.29737934299750524 -0.042178931740991556
0.30865828381745486 -0.042148813486186834
0.320052481732506 -0.042065237781438475
0.33155507330389 -0.04192418512932959
0.3431591298005543 -0.04172360664551524
0.35485766137276875 -0.04146349805390397
0.36664362126255073 -0.04114582605331501
0.3785099100483679 -0.040774317902371196
0.3904493799215649 -0.04035413528280504
0.4024548389919357 -0.03989146183282693
0.41451905561984914 -0.03939303954984812
0.42663476277231926 -0.0388656921203161
0.43879466240039156 -0.03831587296829453
0.4509914298352198 -0.037749272510013636
0.46321771820016633 -0.03717051309631519
0.475466162836291 -0.036582951975081414
0.4877293857385438 -0.035988603036255555
0.4999999999999999 -0.03538817794194903
0.512270614261456 -0.03478123735414964
0.5245338371637088 -0.034166434171078286
0.5367822817998334 -0.03354182367711321
0.54900857016478 -0.03290521083735512
0.5612053375996082 -0.03225450295097532
0.5733652372276805 -0.031588036606746306
0.5854809443801506 -0.030904851211550496
0.5975451610080642 -0.030204886921745475
0.6095506200784349 -0.02948909205087961
0.6214900899516319 -0.02875943328031666
0.6333563787374491 -0.028018810521521796
0.645142338627231 -0.027270886331423373
0.6568408701994456 -0.02651984669320769
0.6684449266961098 -0.025770115195462618
0.6799475182674938 -0.025026045791854204
0.691341716182545 -0.024291620216127754
0.7026206570024947 -0.02357017478257563
0.713777546715141 -0.02286417793478986
0.7248056648273034 -0.022175074898307823
0.7356983684129987 -0.021503209655329075
0.746449096114892 -0.020847827777253254
0.7570513720966108 -0.02020715702783446
0.7674988099435485 -0.01957855665426936
0.7777851165098009 -0.018958721397019374
0.7879040957089227 -0.018343922826800467
0.7978496522462164 -0.017730268861680554
0.8076157952903136 -0.017113962268253853
0.8171966420818224 -0.01649154049037069
0.8265864214768883 -0.015860082021279955
0.8357794774235092 -0.015217368379498773
0.8447702723685334 -0.01456199514012136
0.8535533905932737 -0.01389342996718253
0.8621235414757333 -0.013212019769818993
0.8704755626774794 -0.012518952610797548
0.8786044232532422 -0.011816182571605102
0.8865052266813687 -0.011106327279934219
0.894173213813303 -0.010392548210979844
0.9016037657403225 -0.00967842327676378
0.9087924065757916 -0.008967819808275553
0.9157348061512727 -0.008264774074003915
0.9224267826248536 -0.007573381262444033
0.928864305000136 -0.0068976976834266394
0.9350434955543556 -0.006241655078952701
0.9409606321741775 -0.005608985582786301
0.9466121505977576 -0.005003155152205634
0.9519946465617215 -0.004427303246519833
0.9571048778517655 -0.0038841870862373136
0.9619397662556433 -0.0033761298559691682
0.9664963994173694 -0.0029049735161161207
0.9707720325915102 -0.0024720382334381115
0.9747640902965183 -0.0020780915961155473
0.9784701678661044 -0.0017233315386260308
0.98188803289772 -0.0014073871113905248
0.985015626597272 -0.0011293408064982312
0.9878510650192642 -0.0008877750922543764
0.9903926402016152 -0.0006808441964958626
0.9926388211944706 -0.0005063701656513602
0.9945882549823906 -0.00036196002331161353
0.9962397672993549 -0.00024513870035083955
0.9975923633360985 -0.00015349055412071513
0.998645228339345 -8.480095826566402e-05
0.9993977281025862 -3.718879851039756e-05
0.9998494093481021 -9.220854319356101e-06
1.0 0.0
