1.0 0.0
0.9998494093481021 1.9047669725405337e-05
0.9993977281025862 7.637365492862885e-05
0.998645228339345 0.00017251922821747133
0.9975923633360985 0.0003083618989795681
0.9962397672993549 0.000485081528816758
0.9945882549823906 0.0007041184736839242
0.9926388211944706 0.0009671282712811494
0.9903926402016152 0.0012759373372733531
0.9878510650192642 0.0016325033444539788
0.985015626597272 0.0020388825316614515
0.98188803289772 0.00249720431944197
0.9784701678661044 0.003009651567204666
0.9747640902965183 0.0035784429021044444
0.9707720325915102 0.004205812092237437
0.9664963994173694 0.004893978691614412
0.9619397662556433 0.00564510433570409
0.9571048778517655 0.006461230187119671
0.9519946465617215 0.007344193067378631
0.9466121505977576 0.008295520581412813
0.9409606321741775 0.009316308753992312
0.9350434955543556 0.010407088977876974
0.928864305000136 0.011567694009996982
0.9224267826248536 0.012797134942026512
0.9157348061512727 0.014093502173099072
0.9087924065757916 0.015453903187741438
0.9016037657403225 0.016874448293171262
0.894173213813303 0.018350292457064057
0.8865052266813687 0.019875737229502723
0.8786044232532422 0.02144439179301343
0.8704755626774794 0.023049386931703185
0.8621235414757333 0.024683630672866046
0.8535533905932737 0.026340090062167556
0.8447702723685334 0.028012080459508502
0.8357794774235092 0.029693542247790142
0.8265864214768883 0.03137928513648371
0.8171966420818224 0.03306518233894989
0.8076157952903136 0.0347483006398449
0.7978496522462164 0.036426957403897245
0.7879040957089227 0.03810070142547228
0.7777851165098009 0.03977022060460747
0.7674988099435485 0.04143718515586756
0.7570513720966108 0.04310403984549039
0.746449096114892 0.04477376214468475
0.7356983684129987 0.04644960487082267
0.7248056648273034 0.04813484174081787
0.713777546715141 0.0498325323627935
0.7026206570024947 0.05154531981820262
0.691341716182545 0.05327526957460536
0.6799475182674938 0.05502375356867618
0.6684449266961098 0.05679137850578677
0.6568408701994456 0.05857795330820894
0.645142338627231 0.06038248768614859
0.6333563787374491 0.0622032123289039
0.6214900899516319 0.06403761134703224
0.6095506200784349 0.06588245925656118
0.5975451610080642 0.06773385769250113
0.5854809443801506 0.06958727070693395
0.5733652372276805 0.0714375613639584
0.5612053375996082 0.0732790357603414
0.54900857016478 0.07510550298118361
0.5367822817998334 0.07691036036187514
0.5245338371637088 0.07868671247104579
0.512270614261456 0.08042752938602621
0.4999999999999999 0.08212584529013663
0.4877293857385438 0.08377499261648054
0.475466162836291 0.08536886054397166
0.46321771820016633 0.08690216041222248
0.4509914298352198 0.08837067541569067
0.43879466240039156 0.08977146857612607
0.42663476277231926 0.09110302214543717
0.41451905561984914 0.09236528369426152
0.4024548389919357 0.0935595993262368
0.3904493799215649 0.09468852251169349
0.3785099100483679 0.09575549739746267
0.36664362126255073 0.09676442725075392
0.35485766137276875 0.09771915082567664
0.3431591298005543 0.098622860658656
0.33155507330389 0.09947750635402215
0.320052481732506 0.1002832316910689
0.30865828381745486 0.10103789600317267
0.29737934299750524 0.10173672724849632
0.28622245328485874 0.1023721464535903
0.27519433517269654 0.10293379118599535
0.26430163158700104 0.10340875028249233
0.2535509038851079 0.10378200450740963
0.2429486279033891 0.10403704971181595
0.23250119005645137 0.10415666212605933
0.2222148834901989 0.10412375133969094
0.2120959042910774 0.10392223680414121
0.20215034775378343 0.10353787947822002
0.19238420470968637 0.10295900217970266
0.18280335791817703 0.10217704038599681
0.17341357852311146 0.10118687911046136
0.16422052257649067 0.09998694995163576
0.15522972763146647 0.09857908385645929
0.14644660940672616 0.09696813758489731
0.1378764585242665 0.09516143316675886
0.12952443732252045 0.09316806768798579
0.12139557674675777 0.09099816366193958
0.11349477331863145 0.08866213659669958
0.10582678618669683 0.08617005532226278
0.09839623425967753 0.08353116205062526
0.09120759342420814 0.08075360360271773
0.08426519384872727 0.07784440404810977
0.07757321737514639 0.07480968406448149
0.07113569499986394 0.07165510596485183
0.06495650444564427 0.06838649811053195
0.059039367825822475 0.06501059085186943
0.05338784940224234 0.06153578047135114
0.048005353438278275 0.05797282960038297
0.042895122148234655 0.05433541331415858
0.038060233744356575 0.05064042984299736
0.03350360058263052 0.04690801298156621
0.029227967408489597 0.04316120841417956
0.025235909703481607 0.03942530617913041
0.021529832133895532 0.03572685371562005
0.018111967102280024 0.03209240543354832
0.014984373402728013 0.028547092563264095
0.012148934980735715 0.025113118485771427
0.009607359798384785 0.02180829764176474
0.007361178805529334 0.018644759033996535
0.005411745017609493 0.015627927720069948
0.0037602327006450165 0.012755879941815063
0.0024076366639015356 0.010019140983794098
0.0013547716606548965 0.007400961649997994
0.0006022718974137975 0.004878072182266612
0.00015059065189787502 0.0024218746907565206
0.0 0.0
0.00015059065189787502 -0.0026655033493210053
0.0006022718974137975 -0.0053085075034926725
0.0013547716606548965 -0.007907324551924638
0.0024076366639015356 -0.010441841180040958
0.0037602327006450165 -0.012894189361900262
0.005411745017609493 -0.015249286198212949
0.007361178805529334 -0.017495213685358953
0.009607359798384785 -0.019623420171625175
0.012148934980735715 -0.021628737373397575
0.014984373402728013 -0.023509219202244698
0.018111967102280024 -0.0252658203951159
0.021529832133895532 -0.026901943198689417
0.025235909703481607 -0.028422888406065917
0.029227967408489597 -0.02983525232122606
0.03350360058263052 -0.03114631338786049
0.038060233744356575 -0.03236345115561382
0.042895122148234655 -0.033493636103946144
0.048005353438278275 -0.034543021969554145
0.05338784940224234 -0.03551666319801659
0.059039367825822475 -0.036418369691628885
0.06495650444564427 -0.03725069998052743
0.07113569499986394 -0.03801508316499181
0.07757321737514639 -0.0387120502919632
0.08426519384872727 -0.03934154796911956
0.09120759342420814 -0.03990330156130406
0.09839623425967753 -0.04039719263360319
0.10582678618669683 -0.040823615552436084
0.11349477331863145 -0.041183781242972194
0.12139557674675777 -0.041479941712531894
0.12952443732252045 -0.041715516569854096
0.1378764585242665 -0.041895111727862325
0.14644660940672616 -0.04202443000225512
0.15522972763146647 -0.04211008260476409
0.16422052257649067 -0.042159318805836093
0.17341357852311146 -0.042179697631247744
0.18280335791817703 -0.0421787298378653
0.19238420470968637 -0.04216352025786017
0.20215034775378343 -0.04214043980186355
0.2120959042910774 -0.04211485309166379
0.2222148834901989 -0.04209092218960373
0.23250119005645137 -0.04207149972681752
0.2429486279033891 -0.042058116565523364
0.2535509038851079 -0.042051060700449436
0.26430163158700104 -0.04204953616360846
0.27519433517269654 -0.04205188394515237
0.28622245328485874 -0.042055841967299064
0.29737934299750524 -0.04205881836993229
0.30865828381745486 -0.042058152005930244
0.320052481732506 -0.0420513361026748
0.33155507330389 -0.04203618530646799
0.3431591298005543 -0.04201093237426023
0.35485766137276875 -0.041974248038621556
0.36664362126255073 -0.04192518536712726
0.3785099100483679 -0.04186305754148744
0.3904493799215649 -0.041787264691135355
0.4024548389919357 -0.041697090611693216
0.41451905561984914 -0.041591493402442795
0.42663476277231926 -0.04146891497386415
0.43879466240039156 -0.041327132921394026
0.4509914298352198 -0.04116317456647618
0.46321771820016633 -0.040973307366532465
0.475466162836291 -0.04075311290044259
0.4877293857385438 -0.04049764388046349
0.4999999999999999 -0.040201655828390775
0.512270614261456 -0.039859897890492255
0.5245338371637088 -0.03946744139976846
0.5367822817998334 -0.03902002075471522
0.54900857016478 -0.03851435933495523
0.5612053375996082 -0.037948453682683875
0.5733652372276805 -0.03732179200083346
0.5854809443801506 -0.03663548790495517
0.5975451610080642 -0.03589231688577588
0.6095506200784349 -0.035096650522289094
0.6214900899516319 -0.03425429147228016
0.6333563787374491 -0.033372219971711616
0.645142338627231 -0.032458269343749076
0.6568408701994456 -0.031520753291515644
0.6684449266961098 -0.030568071105407577
0.6799475182674938 -0.029608318110763043
0.691341716182545 -0.028648927663261145
0.7026206570024947 -0.027696367909984622
0.713777546715141 -0.026755911692473405
0.7248056648273034 -0.02583149183655067
0.7356983684129987 -0.024925647212278225
0.746449096114892 -0.02403955796070593
0.7570513720966108 -0.023173161765286582
0.7674988099435485 -0.022325337523410507
0.7777851165098009 -0.02149413866558692
0.7879040957089227 -0.020677055950205015
0.7978496522462164 -0.019871288940833974
0.8076157952903136 -0.019074006494138488
0.8171966420818224 -0.01828257923897745
0.8265864214768883 -0.0174947708729596
0.8357794774235092 -0.016708879713974712
0.8447702723685334 -0.015923826848714566
0.8535533905932737 -0.015139191948506261
0.8621235414757333 -0.014355201953356822
0.8704755626774794 -0.013572681022784925
0.8786044232532422 -0.012792972196159874
0.8865052266813687 -0.01201784200527693
0.894173213813303 -0.011249378878895589
0.9016037657403225 -0.010489894734029993
0.9087924065757916 -0.009741836919417568
0.9157348061512727 -0.009007714984281495
0.9224267826248536 -0.008290043938044183
0.928864305000136 -0.007591303079327016
0.9350434955543556 -0.006913907392411969
0.9409606321741775 -0.006260187145946951
0.9466121505977576 -0.00563237079471805
0.9519946465617215 -0.0050325665882900595
0.9571048778517655 -0.0044627393362576045
0.9619397662556433 -0.003924680388112281
0.9664963994173694 -0.0034199708130333915
0.9707720325915102 -0.0029499397356977314
0.9747640902965183 -0.002515621523840619
0.9784701678661044 -0.0021177167904122816
0.98188803289772 -0.0017565627874735505
0.985015626597272 -0.0014321186316933491
0.9878510650192642 -0.001143969905944677
0.9903926402016152 -0.00089135561394733
0.9926388211944706 -0.000673218393036958
0.9945882549823906 -0.00048827654411514666
0.9962397672993549 -0.000335114083496826
0.9975923633360985 -0.00021228292971009813
0.998645228339345 -0.00011840975447747367
0.9993977281025862 -5.229914244342666e-05
0.9998494093481021 -1.3024634358618248e-05
1.0 0.0
