1.0 0.0
0.9998494093481021 2.6040041131019497e-05
0.9993977281025862 0.00010418939676115147
0.998645228339345 0.00023452809736687461
0.9975923633360985 0.00041716530882384046
0.9962397672993549 0.0006522074923405623
0.9945882549823906 0.0009397221494848626
0.9926388211944706 0.001279704033899647
0.9903926402016152 0.0016720508297695409
0.9878510650192642 0.0021165543672235676
0.985015626597272 0.0026129115563507813
0.98188803289772 0.0031607565919813656
0.9784701678661044 0.0037597129309541334
0.9747640902965183 0.00440946045648415
0.9707720325915102 0.00510981052192874
0.9664963994173694 0.005860779577757014
0.9619397662556433 0.0066626511209481746
0.9571048778517655 0.007516015938911186
0.9519946465617215 0.008421782083278782
0.9466121505977576 0.009381148587515088
0.9409606321741775 0.010395540383536664
0.9350434955543556 0.011466505813360171
0.928864305000136 0.012595582139546903
0.9224267826248536 0.013784138080721915
0.9157348061512727 0.015033205217122403
0.9087924065757916 0.016343311790990647
0.9016037657403225 0.01771433275715044
0.894173213813303 0.019145368860911165
0.8865052266813687 0.020634665134394114
0.8786044232532422 0.022179575759803276
0.8704755626774794 0.02377657812300703
0.8621235414757333 0.025421334526913506
0.8535533905932737 0.027108795932368476
0.8447702723685334 0.02883333869592826
0.8357794774235092 0.030588922946564852
0.8265864214768883 0.03236926022687143
0.8171966420818224 0.03416797840073242
0.8076157952903136 0.035978773512197484
0.7978496522462164 0.037795541023708176
0.7879040957089227 0.03961248228980717
0.7777851165098009 0.041424185773995155
0.7674988099435485 0.04322568590206194
0.7570513720966108 0.04501250510848314
0.746449096114892 0.04678068620808077
0.7356983684129987 0.04852682248776152
0.7248056648273034 0.05024809180966845
0.713777546715141 0.051942298678573515
0.7026206570024947 0.053607924957225835
0.691341716182545 0.05524418615868835
0.6799475182674938 0.05685108653853478
0.6684449266961098 0.05842946311059356
0.6568408701994456 0.05998100673011457
0.645142338627231 0.06150824792621698
0.6333563787374491 0.06301449644878217
0.6214900899516319 0.0645037265414174
0.6095506200784349 0.06598040455486669
0.5975451610080642 0.06744926125418925
0.5854809443801506 0.06891501745272603
0.5733652372276805 0.07038207771655974
0.5612053375996082 0.07185421207872981
0.54900857016478 0.07333424928707927
0.5367822817998334 0.07482380652328684
0.5245338371637088 0.07632307942367092
0.512270614261456 0.07783071251937047
0.4999999999999999 0.0793437641001683
0.4877293857385438 0.08085777148375034
0.475466162836291 0.08236691347918419
0.46321771820016633 0.08386425738729485
0.4509914298352198 0.08534206918541014
0.43879466240039156 0.08679215858308399
0.42663476277231926 0.08820622626143028
0.41451905561984914 0.08957617944164757
0.4024548389919357 0.09089438427459812
0.3904493799215649 0.09215382934516379
0.3785099100483679 0.09334818340741864
0.36664362126255073 0.0944717415245516
0.35485766137276875 0.0955192660132909
0.3431591298005543 0.0964857407369765
0.33155507330389 0.09736606804887736
0.320052481732506 0.09815474583370612
0.30865828381745486 0.0988455666229788
0.29737934299750524 0.09943138099608993
0.28622245328485874 0.09990396317342497
0.27519433517269654 0.10025400807935453
0.26430163158700104 0.10047127688835238
0.2535509038851079 0.10054489327058552
0.2429486279033891 0.1004637766478899
0.23250119005645137 0.10021718336553849
0.2222148834901989 0.09979531341262214
0.2120959042910774 0.09918993067210005
0.20215034775378343 0.0983949398320376
0.19238420470968637 0.0974068637810699
0.18280335791817703 0.09622517174436299
0.17341357852311146 0.0948524202102188
0.16422052257649067 0.09329418490400193
0.15522972763146647 0.09155878124417433
0.14644660940672616 0.08965679105818763
0.1378764585242665 0.08760043284103067
0.12952443732252045 0.08540282950361903
0.12139557674675777 0.0830772395824672
0.11349477331863145 0.08063632385987089
0.10582678618669683 0.07809151841883807
0.09839623425967753 0.07545257712968935
0.09120759342420814 0.07272733193705609
0.08426519384872727 0.0699216992648094
0.07757321737514639 0.06703993714332779
0.07113569499986394 0.06408513247836835
0.06495650444564427 0.06105987364048205
0.059039367825822475 0.05796704267143755
0.05338784940224234 0.054810646051538625
0.048005353438278275 0.051596594859635574
0.042895122148234655 0.0483333453538364
0.038060233744356575 0.04503231980706187
0.03350360058263052 0.041708044331274605
0.029227967408489597 0.03837796410952824
0.025235909703481607 0.035061924930430616
0.021529832133895532 0.03178134067510976
0.018111967102280024 0.028558096644200143
0.014984373402728013 0.025413265504821897
0.012148934980735715 0.022365733596576298
0.009607359798384785 0.019430848261022416
0.007361178805529334 0.01661920034660389
0.005411745017609493 0.01393564952723117
0.0037602327006450165 0.011378683902825237
0.0024076366639015356 0.008940180760336142
0.0013547716606548965 0.006605604389487385
0.0006022718974137975 0.0043546421060416144
0.00015059065189787502 0.002162244149009104
0.0 0.0
0.00015059065189787502 -0.0018670949416425195
0.0006022718974137975 -0.0037182688572871443
0.0013547716606548965 -0.005538220905672323
0.0024076366639015356 -0.007312852457242039
0.0037602327006450165 -0.009029775574835362
0.005411745017609493 -0.010678717885747261
0.007361178805529334 -0.012251801257629
0.009607359798384785 -0.013743680741664027
0.012148934980735715 -0.015151540181262984
0.014984373402728013 -0.01647495094479582
0.018111967102280024 -0.017715609661229818
0.021529832133895532 -0.018876978905212127
0.025235909703481607 -0.01996386088865763
0.029227967408489597 -0.020981937920469533
0.03350360058263052 -0.02193731443664896
0.038060233744356575 -0.02283609373290857
0.042895122148234655 -0.023684018318900272
0.048005353438278275 -0.024486196426537966
0.05338784940224234 -0.02524692918565752
0.059039367825822475 -0.025969643997752274
0.06495650444564427 -0.026656930436433815
0.07113569499986394 -0.027310666339338523
0.07757321737514639 -0.02793221434047254
0.08426519384872727 -0.028522663528569765
0.09120759342420814 -0.029083087654178726
0.09839623425967753 -0.029614790600864308
0.10582678618669683 -0.030119511724082455
0.11349477331863145 -0.03059956796593215
0.12139557674675777 -0.03105791599130696
0.12952443732252045 -0.031498125403855215
0.1378764585242665 -0.031924262704571625
0.14644660940672616 -0.032340694298228626
0.15522972763146647 -0.03275182477402095
0.16422052257649067 -0.033161793186843376
0.17341357852311146 -0.03357415456441971
0.18280335791817703 -0.0339915759535041
0.19238420470968637 -0.03441557579327654
0.20215034775378343 -0.03484633228994165
0.2120959042910774 -0.03528258101368866
0.2222148834901989 -0.035721614604251516
0.23250119005645137 -0.036159388879420315
0.2429486279033891 -0.036590730532598016
0.2535509038851079 -0.037009632773307516
0.26430163158700104 -0.03740961748399949
0.27519433517269654 -0.037784136428271366
0.28622245328485874 -0.038126980294270675
0.29737934299750524 -0.03843266324217254
0.30865828381745486 -0.0386967522683943
0.320052481732506 -0.0389161149839617
0.33155507330389 -0.039089065981050435
0.3431591298005543 -0.039215400278607204
0.35485766137276875 -0.03929631168806722
0.36664362126255073 -0.03933420352219278
0.3785099100483679 -0.0393324080581697
0.3904493799215649 -0.03929483878255317
0.4024548389919357 -0.03922560502931417
0.41451905561984914 -0.0391286216871972
0.42663476277231926 -0.03900724693148592
0.43879466240039156 -0.03886397840329405
0.4509914298352198 -0.038700233137004936
0.46321771820016633 -0.038516229269741846
0.475466162836291 -0.03831097878858798
0.4877293857385438 -0.03808239104509789
0.4999999999999999 -0.03782747731883359
0.512270614261456 -0.03754263815847233
0.5245338371637088 -0.03722400830450375
0.5367822817998334 -0.03686782928899826
0.54900857016478 -0.03647081770487845
0.5612053375996082 -0.036030497798020526
0.5733652372276805 -0.03554547037548615
0.5854809443801506 -0.03501559572361253
0.5975451610080642 -0.03444207576867633
0.6095506200784349 -0.03382742941368187
0.6214900899516319 -0.03317536407788323
0.6333563787374491 -0.03249055515797023
0.645142338627231 -0.03177835267599679
0.6568408701994456 -0.031044440146845296
0.6684449266961098 -0.030294474222712187
0.6799475182674938 -0.02953373469537002
0.691341716182545 -0.02876681292581188
0.7026206570024947 -0.02799736291615786
0.713777546715141 -0.02722793343322566
0.7248056648273034 -0.026459892391948004
0.7356983684129987 -0.025693446773301373
0.746449096114892 -0.024927753395052144
0.7570513720966108 -0.02416110856469145
0.7674988099435485 -0.023391198631720737
0.7777851165098009 -0.022615389196540436
0.7879040957089227 -0.021831028528472414
0.7978496522462164 -0.02103574070421996
0.8076157952903136 -0.020227686010859208
0.8171966420818224 -0.0194057699923072
0.8265864214768883 -0.018569787732492606
0.8357794774235092 -0.017720496033749474
0.8447702723685334 -0.016859612484238406
0.8535533905932737 -0.015989746436151798
0.8621235414757333 -0.015114272117184354
0.8704755626774794 -0.014237158055037228
0.8786044232532422 -0.01336276943045493
0.8865052266813687 -0.01249566076816713
0.894173213813303 -0.011640375568240153
0.9016037657403225 -0.010801267262992801
0.9087924065757916 -0.009982352569862697
0.9157348061512727 -0.009187204297016704
0.9224267826248536 -0.008418886386213272
0.928864305000136 -0.007679929881957227
0.9350434955543556 -0.006972344984850222
0.9409606321741775 -0.00629766168322756
0.9466121505977576 -0.005656989853183295
0.9519946465617215 -0.005051089241560851
0.9571048778517655 -0.004480440344450107
0.9619397662556433 -0.003945308699801652
0.9664963994173694 -0.0034457972754313947
0.9707720325915102 -0.0029818841476295325
0.9747640902965183 -0.002553445208257473
0.9784701678661044 -0.002160263906599059
0.98188803289772 -0.0018020317757055963
0.985015626597272 -0.0014783445389408535
0.9878510650192642 -0.0011886988620268407
0.9903926402016152 -0.0009324943284817255
0.9926388211944706 -0.0007090440825995574
0.9945882549823906 -0.0005175959888785659
0.9962397672993549 -0.00035736433389837313
0.9975923633360985 -0.00022757029887027452
0.998645228339345 -0.00012748789883082736
0.9993977281025862 -5.649101665926617e-05
0.9998494093481021 -1.4096690904491308e-05
1.0 0.0
