1.0 0.0
0.9998494093481021 2.9487476908472085e-05
0.9993977281025862 0.0001179956968257028
0.998645228339345 0.00026565072681029254
0.9975923633360985 0.0004726266032390012
0.9962397672993549 0.0007390965875398321
0.9945882549823906 0.0010651749434067133
0.9926388211944706 0.001450857669321211
0.9903926402016152 0.0018959709878616005
0.9878510650192642 0.0024001355899482034
0.985015626597272 0.0029627527431433775
0.98188803289772 0.003583015621694111
0.9784701678661044 0.004259945937150193
0.9747640902965183 0.004992452548636556
0.9707720325915102 0.005779405639978371
0.9664963994173694 0.0066197176654210705
0.9619397662556433 0.0075124209055752525
0.9571048778517655 0.00845673133942539
0.9519946465617215 0.00945208967955786
0.9466121505977576 0.010498172733836738
0.9409606321741775 0.011594871499855266
0.9350434955543556 0.01274223620283994
0.928864305000136 0.01394039241152206
0.9224267826248536 0.015189435943765659
0.9157348061512727 0.016489317069606955
0.9087924065757916 0.017839726182708474
0.9016037657403225 0.019239993418048402
0.894173213813303 0.020689013575880207
0.8865052266813687 0.022185205268163026
0.8786044232532422 0.02372650969000692
0.8704755626774794 0.025310430221177502
0.8621235414757333 0.02693410965346931
0.8535533905932737 0.0285944377223566
0.8447702723685334 0.030288178271807215
0.8357794774235092 0.03201210319128703
0.8265864214768883 0.0337631194939674
0.8171966420818224 0.0355383766511253
0.8076157952903136 0.03733534347856001
0.7978496522462164 0.039151847235846776
0.7879040957089227 0.040986071756290446
0.7777851165098009 0.042836515886542983
0.7674988099435485 0.044701917753811715
0.7570513720966108 0.04658115389432695
0.746449096114892 0.04847312465435057
0.7356983684129987 0.0503766382376207
0.7248056648273034 0.05229030521764434
0.713777546715141 0.054212453345660105
0.7026206570024947 0.05614106933276496
0.691341716182545 0.058073770386194004
0.6799475182674938 0.06000780415513923
0.6684449266961098 0.06194007194880017
0.6568408701994456 0.06386716715436128
0.645142338627231 0.06578541913041852
0.6333563787374491 0.06769093274839745
0.6214900899516319 0.06957961526773697
0.6095506200784349 0.07144718521055585
0.5975451610080642 0.07328916199119398
0.5854809443801506 0.07510083972631583
0.5733652372276805 0.07687725325943066
0.5612053375996082 0.07861314829888866
0.54900857016478 0.08030297005609738
0.5367822817998334 0.08194088537598042
0.5245338371637088 0.08352085177183566
0.512270614261456 0.08503674296338574
0.4999999999999999 0.08648253470091813
0.4877293857385438 0.08785254734326697
0.475466162836291 0.08914173357893565
0.46321771820016633 0.09034599173685601
0.4509914298352198 0.09146247829495233
0.43879466240039156 0.0924898883921326
0.42663476277231926 0.0934286711663481
0.41451905561984914 0.09428114811372722
0.4024548389919357 0.09505150760028772
0.3904493799215649 0.095745656992668
0.3785099100483679 0.0963709250584797
0.36664362126255073 0.0969356204201446
0.35485766137276875 0.09744846575021403
0.3431591298005543 0.09791794072217978
0.33155507330389 0.09835157809080936
0.320052481732506 0.09875526538693247
0.30865828381745486 0.09913260853546109
0.29737934299750524 0.09948441257171745
0.28622245328485874 0.09980832832691962
0.27519433517269654 0.10009870277047894
0.26430163158700104 0.10034665542768766
0.2535509038851079 0.10054038517597558
0.2429486279033891 0.1006656923438484
0.23250119005645137 0.10070668217629228
0.2222148834901989 0.10064659920120217
0.2120959042910774 0.10046872949549954
0.20215034775378343 0.100157300647105
0.19238420470968637 0.09969830821150638
0.18280335791817703 0.09908020296815186
0.17341357852311146 0.09829438496781323
0.16422052257649067 0.09733546728992404
0.15522972763146647 0.09620129312041101
0.14644660940672616 0.09489271232547604
0.1378764585242665 0.09341314600698468
0.12952443732252045 0.09176798741775918
0.12139557674675777 0.08996390310542753
0.11349477331863145 0.0880081076360154
0.10582678618669683 0.08590768766592898
0.09839623425967753 0.08366904609344168
0.09120759342420814 0.08129752486162466
0.08426519384872727 0.07879724674609682
0.07757321737514639 0.07617119380904724
0.07113569499986394 0.07342151527659978
0.06495650444564427 0.07055003281610422
0.059039367825822475 0.06755888901382055
0.05338784940224234 0.06445126754552477
0.048005353438278275 0.061232102933193734
0.042895122148234655 0.05790869511718792
0.038060233744356575 0.054491149825430914
0.03350360058263052 0.050992579559320496
0.029227967408489597 0.0474290208160724
0.025235909703481607 0.04381904910282203
0.021529832133895532 0.04018310200461334
0.018111967102280024 0.03654254936202553
0.014984373402728013 0.03291857574368673
0.012148934980735715 0.02933096131051044
0.009607359798384785 0.02579686075422451
0.007361178805529334 0.022329684799619665
0.005411745017609493 0.018938184138636807
0.0037602327006450165 0.015625821842512266
0.0024076366639015356 0.012390498370080704
0.0013547716606548965 0.009224665123621991
0.0006022718974137975 0.00611583057095827
0.00015059065189787502 0.0030474301038379845
0.0 0.0
0.00015059065189787502 -0.0020230067191633217
0.0006022718974137975 -0.00403326666557903
0.0013547716606548965 -0.006018539757713785
0.0024076366639015356 -0.007967566210788616
0.0037602327006450165 -0.009870476470070616
0.005411745017609493 -0.011719111686718405
0.007361178805529334 -0.01350723567650535
0.009607359798384785 -0.015230627421850992
0.012148934980735715 -0.01688705205318816
0.014984373402728013 -0.018476117178733747
0.018111967102280024 -0.019999029720677207
0.021529832133895532 -0.021458275411471908
0.025235909703481607 -0.02285724826135917
0.029227967408489597 -0.024199860230591296
0.03350360058263052 -0.02549016181032941
0.038060233744356575 -0.026732002216258436
0.042895122148234655 -0.02792875361007454
0.048005353438278275 -0.02908311755371441
0.05338784940224234 -0.03019702429389188
0.059039367825822475 -0.031271627109241966
0.06495650444564427 -0.03230738553102997
0.07113569499986394 -0.03330422347828733
0.07757321737514639 -0.03426174188378655
0.08426519384872727 -0.035179460775388666
0.09120759342420814 -0.03605706341122891
0.09839623425967753 -0.03689461515253329
0.10582678618669683 -0.03769273229377387
0.11349477331863145 -0.03845268084742882
0.12139557674675777 -0.0391763918983702
0.12952443732252045 -0.039866388038859446
0.1378764585242665 -0.04052562389260503
0.14644660940672616 -0.04115725210003384
0.15522972763146647 -0.041764333634710805
0.16422052257649067 -0.042349517286037384
0.17341357852311146 -0.042914717032310694
0.18280335791817703 -0.043460817468177204
0.19238420470968637 -0.04398743627357538
0.20215034775378343 -0.044492768971344056
0.2120959042910774 -0.044973535191736046
0.2222148834901989 -0.045425037817535575
0.23250119005645137 -0.04584133735825832
0.2429486279033891 -0.04621553444028292
0.2535509038851079 -0.04654014419303358
0.26430163158700104 -0.04680753833095813
0.27519433517269654 -0.04701042456256131
0.28622245328485874 -0.0471423291414675
0.29737934299750524 -0.04719804725807335
0.30865828381745486 -0.04717402767754572
0.320052481732506 -0.04706866244826646
0.33155507330389 -0.046882459293645116
0.3431591298005543 -0.04661808291832615
0.35485766137276875 -0.04628026121066104
0.36664362126255073 -0.04587556241379079
0.3785099100483679 -0.04541205894546459
0.3904493799215649 -0.04489890189034194
0.4024548389919357 -0.04434583659402794
0.41451905561984914 -0.04376269374639964
0.42663476277231926 -0.04315889155172835
0.43879466240039156 -0.04254298297632929
0.4509914298352198 -0.04192227780995966
0.46321771820016633 -0.041302562765100026
0.475466162836291 -0.040687934644500726
0.4877293857385438 -0.04008075244213316
0.4999999999999999 -0.03948170488750619
0.512270614261456 -0.03888998118247147
0.5245338371637088 -0.038303525231891414
0.5367822817998334 -0.037719348126347446
0.54900857016478 -0.037133870410849104
0.5612053375996082 -0.036543264972227305
0.5733652372276805 -0.03594377317886199
0.5854809443801506 -0.03533197097031785
0.5975451610080642 -0.034704967489056326
0.6095506200784349 -0.03406052598888719
0.6214900899516319 -0.03339710446737203
0.6333563787374491 -0.03271382104204912
0.645142338627231 -0.032010355845868414
0.6568408701994456 -0.031286806571584114
0.6684449266961098 -0.030543518308110904
0.6799475182674938 -0.029780909724756256
0.691341716182545 -0.028999316912473257
0.7026206570024947 -0.028198873425860107
0.713777546715141 -0.027379440608825117
0.7248056648273034 -0.026540596601574182
0.7356983684129987 -0.025681686087973343
0.746449096114892 -0.024801926466029953
0.7570513720966108 -0.02390056031188141
0.7674988099435485 -0.022977039291277312
0.7777851165098009 -0.02203122146664801
0.7879040957089227 -0.021063562514113954
0.7978496522462164 -0.020075281791801784
0.8076157952903136 -0.01906848640086654
0.8171966420818224 -0.018046240103130877
0.8265864214768883 -0.017012568819374442
0.8357794774235092 -0.01597239995131028
0.8447702723685334 -0.014931438423629219
0.8535533905932737 -0.013895987610863681
0.8621235414757333 -0.012872727731878702
0.8704755626774794 -0.011868467493262265
0.8786044232532422 -0.010889886499879679
0.8865052266813687 -0.009943286129917555
0.894173213813303 -0.009034365245157522
0.9016037657403225 -0.008168034464822048
0.9087924065757916 -0.007348279076416314
0.9157348061512727 -0.006578076372094993
0.9224267826248536 -0.0058593687055298205
0.928864305000136 -0.005193089279501707
0.9350434955543556 -0.004579233971830533
0.9409606321741775 -0.004016969681851778
0.9466121505977576 -0.003504767923603198
0.9519946465617215 -0.0030405517812517047
0.9571048778517655 -0.002621844836289831
0.9619397662556433 -0.0022459121282398403
0.9664963994173694 -0.0019098853904363467
0.9707720325915102 -0.0016108674242528778
0.9747640902965183 -0.0013460132314331973
0.9784701678661044 -0.0011125881195440449
0.98188803289772 -0.000908005177204949
0.985015626597272 -0.0007298460979633356
0.9878510650192642 -0.0005758702115148023
0.9903926402016152 -0.0004440167439298084
0.9926388211944706 -0.00033240484407176426
0.9945882549823906 -0.00023933492101465892
0.9962397672993549 -0.00016329352544679999
0.9975923633360985 -0.00010296258831362122
0.998645228339345 -5.723250957426447e-05
0.9993977281025862 -2.521754630231424e-05
0.9998494093481021 -6.271309021812713e-06
1.0 0.0
