1.0 0.0
0.9998494093481021 2.103463312475522e-05
0.9993977281025862 8.43493462877505e-05
0.998645228339345 0.00019056544714574278
0.9975923633360985 0.00034068246760944403
0.9962397672993549 0.0005360279989255164
0.9945882549823906 0.0007781945401072315
0.9926388211944706 0.0010689692680175616
0.9903926402016152 0.0014102628321901723
0.9878510650192642 0.001804042641245194
0.985015626597272 0.0022522747296761137
0.98188803289772 0.0027568763681549667
0.9784701678661044 0.0033196793824776666
0.9747640902965183 0.003942401996456394
0.9707720325915102 0.004626625236281964
0.9664963994173694 0.005373768811453418
0.9619397662556433 0.006185061123483457
0.9571048778517655 0.007061498740853236
0.9519946465617215 0.008003792282136638
0.9466121505977576 0.009012298005114276
0.9409606321741775 0.010086937231000116
0.9350434955543556 0.011227108679685566
0.928864305000136 0.012431601453725242
0.9224267826248536 0.013698518393831906
0.9157348061512727 0.015025220504047644
0.9087924065757916 0.01640830288172126
0.9016037657403225 0.017843610995575406
0.894173213813303 0.019326303301447363
0.8865052266813687 0.020850962294638755
0.8786044232532422 0.02241175153467402
0.8704755626774794 0.024002611410654448
0.8621235414757333 0.02561748196508277
0.8535533905932737 0.027250537478122904
0.8447702723685334 0.02889641518502006
0.8357794774235092 0.03055041978904787
0.8265864214768883 0.032208686509690436
0.8171966420818224 0.03386828825001727
0.8076157952903136 0.0355272768626407
0.7978496522462164 0.03718465404636384
0.7879040957089227 0.038840273581268694
0.7777851165098009 0.04049468278864946
0.7674988099435485 0.042148916644690906
0.7570513720966108 0.04380426229528391
0.746449096114892 0.045462014343926875
0.7356983684129987 0.04712324191856643
0.7248056648273034 0.04878858707990557
0.713777546715141 0.05045811075096318
0.7026206570024947 0.05213119737676037
0.691341716182545 0.053806523493303185
0.6799475182674938 0.05548208894760322
0.6684449266961098 0.05715530336662504
0.6568408701994456 0.05882311529555015
0.645142338627231 0.06048216778163787
0.6333563787374491 0.06212896246392172
0.6214900899516319 0.0637600146150017
0.6095506200784349 0.06537198399886558
0.5975451610080642 0.06696177054719624
0.5854809443801506 0.06852656919698769
0.5733652372276805 0.07006388410460024
0.5612053375996082 0.07157150811136842
0.54900857016478 0.07304747805230062
0.5367822817998334 0.07449001964250795
0.5245338371637088 0.07589749679673172
0.512270614261456 0.07726837912779859
0.4999999999999999 0.07860123809740435
0.4877293857385438 0.07989477720262685
0.475466162836291 0.08114789526726947
0.46321771820016633 0.08235977514909046
0.4509914298352198 0.08352998385473648
0.43879466240039156 0.08465856505704146
0.42663476277231926 0.08574610211223249
0.41451905561984914 0.0867937294511642
0.4024548389919357 0.08780307295814252
0.3904493799215649 0.08877610560648144
0.3785099100483679 0.08971491279354703
0.36664362126255073 0.09062137178406701
0.35485766137276875 0.09149676043813884
0.3431591298005543 0.09234132080944593
0.33155507330389 0.09315381203993908
0.320052481732506 0.09393109312238596
0.30865828381745486 0.09466777863700167
0.29737934299750524 0.0953560089043699
0.28622245328485874 0.09598536995603037
0.27519433517269654 0.09654298858299791
0.26430163158700104 0.09701381420959727
0.2535509038851079 0.09738108358453389
0.2429486279033891 0.09762694771643544
0.23250119005645137 0.09773322471099441
0.2222148834901989 0.09768222880746782
0.2120959042910774 0.09745761642504255
0.20215034775378343 0.09704518556241773
0.19238420470968637 0.09643356614808578
0.18280335791817703 0.0956147460755415
0.17341357852311146 0.09458439025712788
0.16422052257649067 0.09334192710792115
0.15522972763146647 0.09189039695284083
0.14644660940672616 0.09023607810057596
0.1378764585242665 0.08838792671996656
0.12952443732252045 0.08635688416569133
0.12139557674675777 0.08415511821532641
0.11349477331863145 0.08179527138052639
0.10582678618669683 0.07928978917555835
0.09839623425967753 0.0766503937599589
0.09120759342420814 0.07388775421465633
0.08426519384872727 0.07101138503620648
0.07757321737514639 0.06802978099992413
0.07113569499986394 0.06495077153776849
0.06495650444564427 0.061782053617297994
0.059039367825822475 0.05853184120815819
0.05338784940224234 0.05520955395775592
0.048005353438278275 0.05182645938421694
0.042895122148234655 0.04839618280837611
0.038060233744356575 0.044935007699752776
0.03350360058263052 0.0414619056009709
0.029227967408489597 0.03799825802812658
0.025235909703481607 0.03456726074230411
0.021529832133895532 0.031193031057006607
0.018111967102280024 0.027899468606690663
0.014984373402728013 0.02470894644193163
0.012148934980735715 0.021640929862488778
0.009607359798384785 0.018710632961550133
0.007361178805529334 0.015927826035996344
0.005411745017609493 0.013295900259069201
0.0037602327006450165 0.010811279658350178
0.0024076366639015356 0.008463245725842101
0.0013547716606548965 0.006234208926585238
0.0006022718974137975 0.00410042659543507
0.00015059065189787502 0.0020331312197018323
0.0 0.0
0.00015059065189787502 -0.0017249427485482808
0.0006022718974137975 -0.0034433723671749967
0.0013547716606548965 -0.0051490709591759
0.0024076366639015356 -0.006836386204004264
0.0037602327006450165 -0.008500454038515796
0.005411745017609493 -0.010137354967348234
0.007361178805529334 -0.011744190962069438
0.009607359798384785 -0.01331907671304399
0.012148934980735715 -0.014861046370614538
0.014984373402728013 -0.01636988423579458
0.018111967102280024 -0.017845894517990183
0.021529832133895532 -0.01928963070185102
0.025235909703481607 -0.02070160878842327
0.029227967408489597 -0.022082030365740746
0.03350360058263052 -0.02343054095505835
0.038060233744356575 -0.024746046386694524
0.042895122148234655 -0.026026605281731924
0.048005353438278275 -0.02726940941872786
0.05338784940224234 -0.028470856354487564
0.059039367825822475 -0.029626710751610903
0.06495650444564427 -0.030732343101263535
0.07113569499986394 -0.031783027573500246
0.07757321737514639 -0.03277427517868907
0.08426519384872727 -0.03370217477368607
0.09120759342420814 -0.03456371303647184
0.09839623425967753 -0.035357045522530516
0.10582678618669683 -0.03608169426682222
0.11349477331863145 -0.036738652869920896
0.12139557674675777 -0.037330387186845726
0.12952443732252045 -0.037860728053176376
0.1378764585242665 -0.03833466126096847
0.14644660940672616 -0.03875802851217157
0.15522972763146647 -0.039137160614815696
0.16422052257649067 -0.039478470102384665
0.17341357852311146 -0.03978803423038698
0.18280335791817703 -0.04007120058860701
0.19238420470968637 -0.040332246219083406
0.20215034775378343 -0.04057411722393105
0.2120959042910774 -0.04079826967532777
0.2222148834901989 -0.04100462468870538
0.23250119005645137 -0.04119164143204046
0.2429486279033891 -0.04135650236557658
0.2535509038851079 -0.04149539592537194
0.26430163158700104 -0.04160387394380027
0.27519433517269654 -0.04167725501310643
0.28622245328485874 -0.04171104126790329
0.29737934299750524 -0.04170131501725966
0.30865828381745486 -0.04164508339940577
0.320052481732506 -0.04154054362827239
0.33155507330389 -0.0413872480902688
0.3431591298005543 -0.0411861569733221
0.35485766137276875 -0.04093957555861032
0.36664362126255073 -0.04065098297817538
0.3785099100483679 -0.0403247683160816
0.3904493799215649 -0.039965897633260965
0.4024548389919357 -0.03957954116906847
0.41451905561984914 -0.03917069313186978
0.42663476277231926 -0.0387438168688512
0.43879466240039156 -0.038302545773739226
0.4509914298352198 -0.0378494652649847
0.46321771820016633 -0.03738599398512078
0.475466162836291 -0.03691237365923442
0.4877293857385438 -0.03642776756283513
0.4999999999999999 -0.035930458107896655
0.512270614261456 -0.035418125474664344
0.5245338371637088 -0.03488818223211968
0.5367822817998334 -0.03433813409586625
0.54900857016478 -0.03376593476941435
0.5612053375996082 -0.033170303376898705
0.5733652372276805 -0.032550976254797435
0.5854809443801506 -0.0319088705267719
0.5975451610080642 -0.031246144434155146
0.6095506200784349 -0.030566148171285095
0.6214900899516319 -0.02987326821765607
0.6333563787374491 -0.029172677074958485
0.645142338627231 -0.028470008152916292
0.6568408701994456 -0.02777098165441725
0.6684449266961098 -0.027081011198467
0.6799475182674938 -0.026404822299392245
0.691341716182545 -0.025746112624088238
0.7026206570024947 -0.02510728033014973
0.713777546715141 -0.0244892411046945
0.7248056648273034 -0.023891347302530543
0.7356983684129987 -0.02331141446614196
0.746449096114892 -0.02274585219931707
0.7570513720966108 -0.022189888555745656
0.7674988099435485 -0.02163787042134021
0.7777851165098009 -0.021083617322166164
0.7879040957089227 -0.02052080302594383
0.7978496522462164 -0.019943338386200042
0.8076157952903136 -0.019345730074343755
0.8171966420818224 -0.018723392945147913
0.8265864214768883 -0.018072898420255647
0.8357794774235092 -0.017392146973522354
0.8447702723685334 -0.016680459017589303
0.8535533905932737 -0.015938584667508294
0.8621235414757333 -0.015168638478557097
0.8704755626774794 -0.014373969890606785
0.8786044232532422 -0.013558983449441557
0.8865052266813687 -0.012728924746816472
0.894173213813303 -0.01188964840478168
0.9016037657403225 -0.011047383445429706
0.9087924065757916 -0.01020850927344424
0.9157348061512727 -0.009379352581552971
0.9224267826248536 -0.00856601214248292
0.928864305000136 -0.00777421505636291
0.9350434955543556 -0.007009204927905289
0.9409606321741775 -0.006275659934395206
0.9466121505977576 -0.005577637002987874
0.9519946465617215 -0.004918537428025299
0.9571048778517655 -0.0043010892030254195
0.9619397662556433 -0.003727341997993741
0.9664963994173694 -0.003198671884880274
0.9707720325915102 -0.002715794358221302
0.9747640902965183 -0.0022787856538927192
0.9784701678661044 -0.0018871135922744512
0.98188803289772 -0.0015396799640618318
0.985015626597272 -0.0012348767065060021
0.9878510650192642 -0.000970657735851706
0.9903926402016152 -0.000744627344530222
0.9926388211944706 -0.0005541446545814925
0.9945882549823906 -0.0003964419203079579
0.9962397672993549 -0.0002687527119163076
0.9975923633360985 -0.00016844441919125852
0.998645228339345 -9.314830552019944e-05
0.9993977281025862 -4.0879691086956514e-05
0.9998494093481021 -1.0140859726848572e-05
1.0 0.0
