1.0 0.0
0.9998494093481021 1.734134133565411e-05
0.9993977281025862 6.955440100365948e-05
0.998645228339345 0.00015720023003402958
0.9975923633360985 0.0002811946072732024
0.9962397672993549 0.00044278201356233096
0.9945882549823906 0.000643504552237445
0.9926388211944706 0.0008851700561943977
0.9903926402016152 0.0011698234197213104
0.9878510650192642 0.0014997242227374503
0.985015626597272 0.0018773320811951975
0.98188803289772 0.0023052990707992005
0.9784701678661044 0.002786466322790709
0.9747640902965183 0.00332385981510561
0.9707720325915102 0.003920678814833815
0.9664963994173694 0.00458026965884772
0.9619397662556433 0.00530607779302891
0.9571048778517655 0.006101572313251928
0.9519946465617215 0.00697013961381493
0.9466121505977576 0.007914945964164723
0.9409606321741775 0.008938772592807393
0.9350434955543556 0.010043830756853018
0.928864305000136 0.011231567867282499
0.9224267826248536 0.012502478577408778
0.9157348061512727 0.013855936434952037
0.9087924065757916 0.015290061961157545
0.9016037657403225 0.016801641710850693
0.894173213813303 0.01838611000856006
0.8865052266813687 0.020037600841766944
0.8786044232532422 0.02174907217279754
0.8704755626774794 0.023512499178600845
0.8621235414757333 0.025319127190486897
0.8535533905932737 0.027159769948979017
0.8447702723685334 0.029025134733716308
0.8357794774235092 0.03090615339490576
0.8265864214768883 0.03279429757245789
0.8171966420818224 0.03468185753239943
0.8076157952903136 0.03656216697558492
0.7978496522462164 0.0384297605958919
0.7879040957089227 0.04028045664520397
0.7777851165098009 0.04211136275555379
0.7674988099435485 0.043920809183084435
0.7570513720966108 0.04570821890077277
0.746449096114892 0.047473928085581055
0.7356983684129987 0.04921897316515046
0.7248056648273034 0.05094486152785895
0.713777546715141 0.052653342269180115
0.7026206570024947 0.05434619114625836
0.691341716182545 0.05602502060272237
0.6799475182674938 0.05769112178417892
0.6684449266961098 0.059345341424688274
0.6568408701994456 0.06098799286787625
0.645142338627231 0.06261879773804821
0.6333563787374491 0.06423685320740376
0.6214900899516319 0.06584061955075539
0.6095506200784349 0.06742792368022132
0.5975451610080642 0.06899597636124327
0.5854809443801506 0.07054140342069695
0.5733652372276805 0.07206029395267649
0.5612053375996082 0.07354827075218724
0.54900857016478 0.07500058944122064
0.5367822817998334 0.07641227258534954
0.5245338371637088 0.07777828329674027
0.512270614261456 0.07909373936668686
0.4999999999999999 0.08035416409422534
0.4877293857385438 0.08155576413659019
0.475466162836291 0.08269571855602766
0.46321771820016633 0.08377245755833726
0.4509914298352198 0.08478590503656185
0.43879466240039156 0.08573765671801295
0.42663476277231926 0.08663106607926378
0.41451905561984914 0.08747121361378529
0.4024548389919357 0.08826474157239647
0.3904493799215649 0.08901954566307622
0.3785099100483679 0.08974432676316565
0.36664362126255073 0.09044801852590581
0.35485766137276875 0.09113911968637438
0.3431591298005543 0.09182497159772188
0.33155507330389 0.09251103077077576
0.320052481732506 0.09320019180393427
0.30865828381745486 0.09389221720366568
0.29737934299750524 0.09458332671949497
0.28622245328485874 0.09526598992163472
0.27519433517269654 0.09592895229855235
0.26430163158700104 0.0965575080881694
0.2535509038851079 0.09713401373510511
0.2429486279033891 0.09763861594373978
0.23250119005645137 0.098050149582424
0.2222148834901989 0.09834714497961526
0.2120959042910774 0.09850887303426364
0.20215034775378343 0.0985163512746416
0.19238420470968637 0.09835323527664956
0.18280335791817703 0.09800652783555079
0.17341357852311146 0.09746705248305185
0.16422052257649067 0.09672965725387737
0.15522972763146647 0.09579313740562419
0.14644660940672616 0.09465989006858659
0.1378764585242665 0.09333533732875443
0.12952443732252045 0.09182717481040048
0.12139557674675777 0.0901445184252611
0.11349477331863145 0.08829703101164174
0.10582678618669683 0.08629411210027539
0.09839623425967753 0.08414422771186114
0.09120759342420814 0.08185444335546214
0.08426519384872727 0.07943020341968585
0.07757321737514639 0.07687537571859832
0.07113569499986394 0.07419255332912278
0.06495650444564427 0.0713835795552057
0.059039367825822475 0.06845023841917781
0.05338784940224234 0.06539503483422592
0.048005353438278275 0.06222197742533904
0.042895122148234655 0.05893727407108946
0.038060233744356575 0.055549856095051066
0.03350360058263052 0.05207166127238339
0.029227967408489597 0.048517627251835185
0.025235909703481607 0.04490537373151229
0.021529832133895532 0.04125458133042661
0.018111967102280024 0.0375861048104786
0.014984373402728013 0.03392088530819636
0.012148934980735715 0.030278747923047657
0.009607359798384785 0.026677185229789267
0.007361178805529334 0.02313023255692936
0.005411745017609493 0.01964753654257955
0.0037602327006450165 0.01623370477563667
0.0024076366639015356 0.01288800236761239
0.0013547716606548965 0.009604432975921656
0.0006022718974137975 0.006372209623042116
0.00015059065189787502 0.0031765875189382078
0.0 0.0
0.00015059065189787502 -0.001790969689873179
0.0006022718974137975 -0.003570689455535949
0.0013547716606548965 -0.0053284073087258126
0.0024076366639015356 -0.0070543330484695715
0.0037602327006450165 -0.008740036519226203
0.005411745017609493 -0.010378753719861421
0.007361178805529334 -0.01196558115325686
0.009607359798384785 -0.01349754720737248
0.012148934980735715 -0.014973558564070765
0.014984373402728013 -0.016394228928718547
0.018111967102280024 -0.01776160604120917
0.021529832133895532 -0.019078820296428857
0.025235909703481607 -0.020349683799885644
0.029227967408489597 -0.021578271889507405
0.03350360058263052 -0.022768519825170693
0.038060233744356575 -0.023923865441244124
0.042895122148234655 -0.02504696423652689
0.048005353438278275 -0.026139496994987632
0.05338784940224234 -0.027202082109149824
0.059039367825822475 -0.02823429595951041
0.06495650444564427 -0.02923479570478196
0.07113569499986394 -0.030201530391437456
0.07757321737514639 -0.03113201908579118
0.08426519384872727 -0.032023669356465334
0.09120759342420814 -0.032874106329583895
0.09839623425967753 -0.03368148195747914
0.10582678618669683 -0.034444736129944
0.11349477331863145 -0.035163785647402794
0.12139557674675777 -0.03583962349882469
0.12952443732252045 -0.03647431880271635
0.1378764585242665 -0.0370709165079339
0.14644660940672616 -0.03763324477027453
0.15522972763146647 -0.03816564606790762
0.16422052257649067 -0.03867265489361432
0.17341357852311146 -0.03915864967731883
0.18280335791817703 -0.03962750902531636
0.19238420470968637 -0.04008230219147752
0.20215034775378343 -0.040525040921707445
0.2120959042910774 -0.040956514661842296
0.2222148834901989 -0.04137622402399514
0.23250119005645137 -0.041782418971815984
0.2429486279033891 -0.0421722391367731
0.2535509038851079 -0.042541944799804415
0.26430163158700104 -0.042887219141023857
0.27519433517269654 -0.04320351607335363
0.28622245328485874 -0.04348642389419315
0.29737934299750524 -0.04373201348389976
0.30865828381745486 -0.04393714099922874
0.320052481732506 -0.04409967886429957
0.33155507330389 -0.044218655029444845
0.3431591298005543 -0.04429428842233592
0.35485766137276875 -0.044327917568436806
0.36664362126255073 -0.04432182872058066
0.3785099100483679 -0.04427899868986097
0.3904493799215649 -0.04420277513212561
0.4024548389919357 -0.044096522645963386
0.41451905561984914 -0.043963266178695296
0.42663476277231926 -0.04380536363093979
0.43879466240039156 -0.043624237153373366
0.4509914298352198 -0.04342018764290843
0.46321771820016633 -0.043192309800097965
0.475466162836291 -0.04293851642684712
0.4877293857385438 -0.04265567118158067
0.4999999999999999 -0.0423398195952634
0.512270614261456 -0.041986499609314346
0.5245338371637088 -0.04159110597143863
0.5367822817998334 -0.04114927812025354
0.54900857016478 -0.04065727911020945
0.5612053375996082 -0.04011233384848336
0.5733652372276805 -0.039512898362374635
0.5854809443801506 -0.038858837677332385
0.5975451610080642 -0.03815149764016675
0.6095506200784349 -0.03739366498502635
0.6214900899516319 -0.03658941932684374
0.6333563787374491 -0.035743889763787014
0.645142338627231 -0.03486293660515738
0.6568408701994456 -0.033952784753132965
0.6684449266961098 -0.03301963896268608
0.6799475182674938 -0.03206931230013394
0.691341716182545 -0.031106897564715314
0.7026206570024947 -0.030136507409117743
0.713777546715141 -0.029161102785926676
0.7248056648273034 -0.028182421722698022
0.7356983684129987 -0.02720101197338851
0.746449096114892 -0.02621636254884039
0.7570513720966108 -0.025227121223320898
0.7674988099435485 -0.02423137850140749
0.7777851165098009 -0.02322699373150138
0.7879040957089227 -0.02221193641607617
0.7978496522462164 -0.021184615441385193
0.8076157952903136 -0.020144170870971496
0.8171966420818224 -0.019090706863967282
0.8265864214768883 -0.018025449772572682
0.8357794774235092 -0.016950822004787234
0.8447702723685334 -0.01587042920319306
0.8535533905932737 -0.014788965074120195
0.8621235414757333 -0.013712044236802617
0.8704755626774794 -0.012645978278865908
0.8786044232532422 -0.011597513467456503
0.8865052266813687 -0.010573550098307035
0.894173213813303 -0.009580863258557493
0.9016037657403225 -0.008625842981977588
0.9087924065757916 -0.007714268671123152
0.9157348061512727 -0.006851128633569049
0.9224267826248536 -0.006040491069357718
0.928864305000136 -0.005285428305616679
0.9350434955543556 -0.004587991919520718
0.9409606321741775 -0.003949232967346184
0.9466121505977576 -0.0033692590884483132
0.9519946465617215 -0.002847318902831302
0.9571048778517655 -0.0023819038710481215
0.9619397662556433 -0.0019708585232746084
0.9664963994173694 -0.0016114914851852705
0.9707720325915102 -0.0013006817623079274
0.9747640902965183 -0.0010349769925999434
0.9784701678661044 -0.0008106825453711422
0.98188803289772 -0.0006239421778090664
0.985015626597272 -0.00047081226722910135
0.9878510650192642 -0.00034733230883995947
0.9903926402016152 -0.0002495943855759701
0.9926388211944706 -0.00017381374428360766
0.9945882549823906 -0.00011640158923644846
0.9962397672993549 -7.40399182385783e-05
0.9975923633360985 -4.375689125389874e-05
0.998645228339345 -2.300004517950404e-05
0.9993977281025862 -9.70382878772199e-06
0.9998494093481021 -2.347553902249747e-06
1.0 0.0
