1.0 0.0
0.9998494093481021 1.634451416844456e-05
0.9993977281025862 6.571953899737334e-05
0.998645228339345 0.00014912994894039676
0.9975923633360985 0.0002681869883052547
0.9962397672993549 0.00042501869180562645
0.9945882549823906 0.0006221552817482198
0.9926388211944706 0.0008623988659794742
0.9903926402016152 0.0011486875093914414
0.9878510650192642 0.001483963395494139
0.985015626597272 0.0018710534050286538
0.98188803289772 0.002312568213661278
0.9784701678661044 0.0028108232498114485
0.9747640902965183 0.0033677819202458754
0.9707720325915102 0.003985018787649765
0.9664963994173694 0.0046636982241123
0.9619397662556433 0.005404562746323152
0.9571048778517655 0.00620792493099697
0.9519946465617215 0.007073657548348007
0.9466121505977576 0.008001178233562644
0.9409606321741775 0.00898942740882061
0.9350434955543556 0.010036840937662588
0.928864305000136 0.011141321744472249
0.9224267826248536 0.01230021695732135
0.9157348061512727 0.013510308664499732
0.9087924065757916 0.014767826833057732
0.9016037657403225 0.016068492166754024
0.894173213813303 0.017407594675981113
0.8865052266813687 0.018780110645014995
0.8786044232532422 0.020180856807892066
0.8704755626774794 0.02160467629282637
0.8621235414757333 0.02304664674493745
0.8535533905932737 0.02450229748128714
0.8447702723685334 0.02596782002064438
0.8357794774235092 0.02744025521490056
0.8265864214768883 0.028917640699026772
0.8171966420818224 0.030399104509543515
0.8076157952903136 0.03188489435365004
0.7978496522462164 0.03337633682769696
0.7879040957089227 0.034875726430172505
0.7777851165098009 0.036386149944717616
0.7674988099435485 0.03791125710474097
0.7570513720966108 0.03945499284750566
0.746449096114892 0.04102130947139863
0.7356983684129987 0.04261387832201927
0.7248056648273034 0.044235820130706024
0.713777546715141 0.04588947089216246
0.7026206570024947 0.04757619646653485
0.691341716182545 0.049296264357858326
0.6799475182674938 0.05104877589963336
0.6684449266961098 0.0528316569625062
0.6568408701994456 0.05464170086008648
0.645142338627231 0.05647465384776781
0.6333563787374491 0.05832533181722111
0.6214900899516319 0.06018775662518236
0.6095506200784349 0.06205530188677084
0.5975451610080642 0.06392084073253863
0.5854809443801506 0.06577689152210392
0.5733652372276805 0.06761576125266226
0.5612053375996082 0.0694296897757538
0.54900857016478 0.07121100034884982
0.5367822817998334 0.07295226301810309
0.5245338371637088 0.07464647655288152
0.512270614261456 0.07628727205913997
0.4999999999999999 0.07786913716934943
0.4877293857385438 0.07938765427243977
0.475466162836291 0.08083974025116374
0.46321771820016633 0.08222386942707567
0.4509914298352198 0.0835402567261499
0.43879466240039156 0.08479097528260633
0.42663476277231926 0.08597998246465921
0.41451905561984914 0.08711303106900183
0.4024548389919357 0.08819744831967219
0.3904493799215649 0.08924177410200972
0.3785099100483679 0.09025526099084366
0.36664362126255073 0.09124725120206266
0.35485766137276875 0.09222645846992239
0.3431591298005543 0.09320019474837697
0.33155507330389 0.09417359125772036
0.320052481732506 0.09514886957393175
0.30865828381745486 0.0961247202675506
0.29737934299750524 0.09709584348966417
0.28622245328485874 0.09805269777210732
0.27519433517269654 0.0989814905434093
0.26430163158700104 0.09986442732696102
0.2535509038851079 0.10068021756892716
0.2429486279033891 0.10140481514072293
0.23250119005645137 0.10201235254597721
0.2222148834901989 0.10247621151061101
0.2120959042910774 0.10277016055152448
0.20215034775378343 0.10286948357187625
0.19238420470968637 0.10275202331046779
0.18280335791817703 0.10239906979775219
0.17341357852311146 0.10179603644371162
0.16422052257649067 0.10093288400592118
0.15522972763146647 0.09980427393955103
0.14644660940672616 0.0984094556039951
0.1378764585242665 0.09675191436636012
0.12952443732252045 0.09483882765926006
0.12139557674675777 0.09268039157376784
0.11349477331863145 0.09028909004432797
0.10582678618669683 0.08767898111226226
0.09839623425967753 0.08486506980719447
0.09120759342420814 0.08186282524751923
0.08426519384872727 0.07868788171534875
0.07757321737514639 0.07535594139910662
0.07113569499986394 0.07188287236459515
0.06495650444564427 0.06828497151431638
0.059039367825822475 0.0645793412505607
0.05338784940224234 0.060784312481398386
0.048005353438278275 0.05691983727394398
0.042895122148234655 0.05300777301746965
0.038060233744356575 0.04907198681115762
0.03350360058263052 0.04513822353100777
0.029227967408489597 0.041233702464291616
0.025235909703481607 0.037386433645672255
0.021529832133895532 0.03362427368255372
0.018111967102280024 0.02997376921349932
0.014984373402728013 0.026458861451554416
0.012148934980735715 0.02309954499027008
0.009607359798384785 0.019910586125049097
0.007361178805529334 0.016900408968295463
0.005411745017609493 0.014070251032745597
0.0037602327006450165 0.011413674028501651
0.0024076366639015356 0.008916491543005667
0.0013547716606548965 0.006557145001435871
0.0006022718974137975 0.004307525392339893
0.00015059065189787502 0.002134203615929946
0.0 0.0
0.00015059065189787502 -0.0019210524034067604
0.0006022718974137975 -0.0038249635265659413
0.0013547716606548965 -0.005695349196304875
0.0024076366639015356 -0.007517292320252227
0.0037602327006450165 -0.009277961964141806
0.005411745017609493 -0.010967104254696523
0.007361178805529334 -0.012577376938720972
0.009607359798384785 -0.014104510472082901
0.012148934980735715 -0.01554729065595519
0.014984373402728013 -0.01690737016790462
0.018111967102280024 -0.01818892792834714
0.021529832133895532 -0.019398205236403763
0.025235909703481607 -0.020542955269389568
0.029227967408489597 -0.021631847318057437
0.03350360058263052 -0.022673868703361806
0.038060233744356575 -0.0236777656195114
0.042895122148234655 -0.024651559358235067
0.048005353438278275 -0.02560216691698532
0.05338784940224234 -0.026535145511858323
0.059039367825822475 -0.02745456979207963
0.06495650444564427 -0.028363039466492743
0.07113569499986394 -0.029261804504016307
0.07757321737514639 -0.030150985908222468
0.08426519384872727 -0.03102986301948089
0.09120759342420814 -0.031897193915723036
0.09839623425967753 -0.032751534090291794
0.10582678618669683 -0.03359152025796717
0.11349477331863145 -0.03441609069756598
0.12139557674675777 -0.03522462056020885
0.12952443732252045 -0.03601695942949945
0.1378764585242665 -0.036793368333261404
0.14644660940672616 -0.03755436350792709
0.15522972763146647 -0.038300483622910955
0.16422052257649067 -0.039032005059529015
0.17341357852311146 -0.0397486355127393
0.18280335791817703 -0.040449219138249115
0.19238420470968637 -0.041131486428643046
0.20215034775378343 -0.04179187895277478
0.2120959042910774 -0.04242547327425301
0.2222148834901989 -0.04302602025833557
0.23250119005645137 -0.04358610626215748
0.2429486279033891 -0.04409743220333253
0.2535509038851079 -0.04455119611136981
0.26430163158700104 -0.04493855537609356
0.27519433517269654 -0.0452511373284436
0.28622245328485874 -0.04548156168314557
0.29737934299750524 -0.04562393619462845
0.30865828381745486 -0.04567428783596281
0.320052481732506 -0.04563089584974782
0.33155507330389 -0.04549449982389223
0.3431591298005543 -0.045268364964852204
0.35485766137276875 -0.04495819724035882
0.36664362126255073 -0.044571912183735754
0.3785099100483679 -0.04411927198335695
0.3904493799215649 -0.04361141514214293
0.4024548389919357 -0.043060310704564946
0.41451905561984914 -0.04247817420236013
0.42663476277231926 -0.04187688467449542
0.43879466240039156 -0.04126744123226917
0.4509914298352198 -0.04065949378760617
0.46321771820016633 -0.0400609761094565
0.475466162836291 -0.03947786089989767
0.4877293857385438 -0.038914046827572706
0.4999999999999999 -0.03837137725404939
0.512270614261456 -0.0378497805906745
0.5245338371637088 -0.037347513626935114
0.5367822817998334 -0.036861482450729885
0.54900857016478 -0.03638761123167665
0.5612053375996082 -0.03592122743758588
0.5733652372276805 -0.035457433040945584
0.5854809443801506 -0.03499143475109909
0.5975451610080642 -0.034518811871680294
0.6095506200784349 -0.03403570745527942
0.6214900899516319 -0.033538936318687484
0.6333563787374491 -0.03302601145508263
0.645142338627231 -0.03249509771715037
0.6568408701994456 -0.031944907715072385
0.6684449266961098 -0.03137455918300148
0.6799475182674938 -0.03078341530484842
0.691341716182545 -0.030170929545911176
0.7026206570024947 -0.029536514508544026
0.713777546715141 -0.02887945050561387
0.7248056648273034 -0.028198844369880627
0.7356983684129987 -0.027493643045465917
0.746449096114892 -0.026762700347759707
0.7570513720966108 -0.026004889533160856
0.7674988099435485 -0.02521924952974518
0.7777851165098009 -0.024405149271842407
0.7879040957089227 -0.023562452833874897
0.7978496522462164 -0.02269166807925581
0.8076157952903136 -0.021794063261263288
0.8171966420818224 -0.020871739205038365
0.8265864214768883 -0.019927648999612364
0.8357794774235092 -0.018965562078885813
0.8447702723685334 -0.017989974667864932
0.8535533905932737 -0.017005973317726842
0.8621235414757333 -0.016019062206957597
0.8704755626774794 -0.01503496769811006
0.8786044232532422 -0.0140594350892102
0.8865052266813687 -0.013098032507359627
0.894173213813303 -0.012155975526826884
0.9016037657403225 -0.0112379835547403
0.9087924065757916 -0.010348175621333526
0.9157348061512727 -0.009490009317083355
0.9224267826248536 -0.008666262644741114
0.928864305000136 -0.007879054896105261
0.9350434955543556 -0.007129899664590473
0.9409606321741775 -0.006419781022605963
0.9466121505977576 -0.005749242876319998
0.9519946465617215 -0.005118481589292867
0.9571048778517655 -0.004527433053719126
0.9619397662556433 -0.003975847294566445
0.9664963994173694 -0.0034633461515474412
0.9707720325915102 -0.0029894622855928927
0.9747640902965183 -0.002553660380332656
0.9784701678661044 -0.00215534366166661
0.98188803289772 -0.001793850504351511
0.985015626597272 -0.0014684467799354322
0.9878510650192642 -0.0011783196672977706
0.9903926402016152 -0.0009225779359225888
0.9926388211944706 -0.0007002623533200956
0.9945882549823906 -0.0005103680639075345
0.9962397672993549 -0.00035187878507503273
0.9975923633360985 -0.00022381073016166308
0.998645228339345 -0.0001252625443340735
0.9993977281025862 -5.546642922789078e-05
0.9998494093481021 -1.3835168602232074e-05
1.0 0.0
