1.0 0.0
0.9998494093481021 2.0223848733355392e-05
0.9993977281025862 8.110909806132285e-05
0.998645228339345 0.00018328695647542892
0.9975923633360985 0.00032777750937885324
0.9962397672993549 0.0005159454344622361
0.9945882549823906 0.0007494446961318346
0.9926388211944706 0.0010301577616680204
0.9903926402016152 0.0013601349995729449
0.9878510650192642 0.0017415392243491376
0.985015626597272 0.0021765989312981667
0.98188803289772 0.002667571813283007
0.9784701678661044 0.0032167179421192125
0.9747640902965183 0.0038262798487048626
0.9707720325915102 0.004498464969841469
0.9664963994173694 0.005235424827791253
0.9619397662556433 0.006039225073834637
0.9571048778517655 0.00691180125325933
0.9519946465617215 0.007854896804195407
0.9466121505977576 0.008869982227098743
0.9409606321741775 0.009958157283780737
0.9350434955543556 0.011120041150433007
0.928864305000136 0.01235565826270078
0.9224267826248536 0.013664329764027962
0.9157348061512727 0.015044581668848917
0.9087924065757916 0.016494080847578047
0.9016037657403225 0.0180096086323825
0.894173213813303 0.019587079285352065
0.8865052266813687 0.021221606970844967
0.8786044232532422 0.02290762057368886
0.8704755626774794 0.024639021147223567
0.8621235414757333 0.026409372455029216
0.8535533905932737 0.02821211147898675
0.8447702723685334 0.03004076333410365
0.8357794774235092 0.03188914407339122
0.8265864214768883 0.03375153554529748
0.8171966420818224 0.0356228187641745
0.8076157952903136 0.03749855597059981
0.7978496522462164 0.03937501632725033
0.7879040957089227 0.04124914552341655
0.7777851165098009 0.043118484878245635
0.7674988099435485 0.044981050259211355
0.7570513720966108 0.04683518474347349
0.746449096114892 0.0486794010386363
0.7356983684129987 0.05051223000670599
0.7248056648273034 0.05233209016111665
0.713777546715141 0.0541371899008338
0.7026206570024947 0.05592546987093444
0.691341716182545 0.057694587714490625
0.6799475182674938 0.0594419422226317
0.6684449266961098 0.06116472914159373
0.6568408701994456 0.06286001725088368
0.645142338627231 0.0645248312561012
0.6333563787374491 0.06615622783066208
0.6214900899516319 0.06775135285526644
0.6095506200784349 0.06930747136487493
0.5975451610080642 0.07082196651486011
0.5854809443801506 0.07229230942799822
0.5733652372276805 0.07371600736587959
0.5612053375996082 0.07509054252451296
0.54900857016478 0.07641331717574276
0.5367822817998334 0.07768162229289415
0.5245338371637088 0.07889264585501661
0.512270614261456 0.08004353363372502
0.4999999999999999 0.08113150964139744
0.4877293857385438 0.08215405606092162
0.475466162836291 0.08310914413605489
0.46321771820016633 0.08399549910567818
0.4509914298352198 0.08481287482342058
0.43879466240039156 0.08556230819447072
0.42663476277231926 0.08624632081764352
0.41451905561984914 0.08686903582809381
0.4024548389919357 0.08743618214879763
0.3904493799215649 0.08795496605056347
0.3785099100483679 0.08843380057286325
0.36664362126255073 0.08888189609339606
0.35485766137276875 0.08930872898826424
0.3431591298005543 0.08972341855315996
0.33155507330389 0.09013405376919544
0.320052481732506 0.09054701980397865
0.30865828381745486 0.09096637828894301
0.29737934299750524 0.09139335472154629
0.28622245328485874 0.0918259805746241
0.27519433517269654 0.09225892712640077
0.26430163158700104 0.09268355342475025
0.2535509038851079 0.09308817338430272
0.2429486279033891 0.09345852834208125
0.23250119005645137 0.09377843322129524
0.2222148834901989 0.09403054855628014
0.2120959042910774 0.09419721864500631
0.20215034775378343 0.09426130932658842
0.19238420470968637 0.0942069781693568
0.18280335791817703 0.0940203154693046
0.17341357852311146 0.0936898060494123
0.16422052257649067 0.09320657846201992
0.15522972763146647 0.09256442834263705
0.14644660940672616 0.09175962445821657
0.1378764585242665 0.0907905273259108
0.12952443732252045 0.08965706902003173
0.12139557674675777 0.08836015699873634
0.11349477331863145 0.08690107292417014
0.10582678618669683 0.08528093853614696
0.09839623425967753 0.08350031436036293
0.09120759342420814 0.08155898380393255
0.08426519384872727 0.07945595613587048
0.07757321737514639 0.07718969870506191
0.07113569499986394 0.07475858371038283
0.06495650444564427 0.07216151035945072
0.059039367825822475 0.06939864180631178
0.05338784940224234 0.0664721800927532
0.048005353438278275 0.06338709322993022
0.042895122148234655 0.06015170770329251
0.038060233744356575 0.05677808745023384
0.03350360058263052 0.053282136303524734
0.029227967408489597 0.04968338376450108
0.025235909703481607 0.04600444181237734
0.021529832133895532 0.04227015078019129
0.018111967102280024 0.03850646233743111
0.014984373402728013 0.03473913447296091
0.012148934980735715 0.030992334453811235
0.009607359798384785 0.027287258909847983
0.007361178805529334 0.023640884017274655
0.005411745017609493 0.020064952622627905
0.0037602327006450165 0.016565289372980394
0.0024076366639015356 0.013141510704668303
0.0013547716606548965 0.009787165896370487
0.0006022718974137975 0.006490310937294609
0.00015059065189787502 0.003234481704622341
0.0 0.0
0.00015059065189787502 -0.002582129925343636
0.0006022718974137975 -0.005137372848459978
0.0013547716606548965 -0.007639857742124668
0.0024076366639015356 -0.010065688618058214
0.0037602327006450165 -0.01239379359218301
0.005411745017609493 -0.01460661823030926
0.007361178805529334 -0.01669062782439308
0.009607359798384785 -0.018636595867911818
0.012148934980735715 -0.020439669947332498
0.014984373402728013 -0.022099220536859213
0.018111967102280024 -0.02361849175285844
0.021529832133895532 -0.025004085032489184
0.025235909703481607 -0.026265316122844308
0.029227967408489597 -0.027413492073512853
0.03350360058263052 -0.028461157730608717
0.038060233744356575 -0.02942136041752691
0.042895122148234655 -0.03030697721650306
0.048005353438278275 -0.03113014195568618
0.05338784940224234 -0.03190179930419506
0.059039367825822475 -0.03263140209989466
0.06495650444564427 -0.033326756104550534
0.07113569499986394 -0.0339940047533067
0.07757321737514639 -0.03463773605006512
0.08426519384872727 -0.03526118535038385
0.09120759342420814 -0.03586650198277589
0.09839623425967753 -0.03645504487494751
0.10582678618669683 -0.037027672705378024
0.11349477331863145 -0.03758499746157301
0.12139557674675777 -0.0381275762742474
0.12952443732252045 -0.03865602441713841
0.1378764585242665 -0.039171041658397014
0.14644660940672616 -0.03967335386802321
0.15522972763146647 -0.040163581049465956
0.16422052257649067 -0.040642050946515844
0.17341357852311146 -0.04110858337475298
0.18280335791817703 -0.041562273917120036
0.19238420470968637 -0.042001306307989233
0.20215034775378343 -0.04242282066157289
0.2120959042910774 -0.04282285988380984
0.2222148834901989 -0.0431964095812502
0.23250119005645137 -0.04353753818042155
0.2429486279033891 -0.043839634570501856
0.2535509038851079 -0.04409573122598818
0.26430163158700104 -0.04429889229685215
0.27519433517269654 -0.0444426393371961
0.28622245328485874 -0.0445213828016636
0.29737934299750524 -0.04453082559545206
0.30865828381745486 -0.0444683060067704
0.320052481732506 -0.04433305121589509
0.33155507330389 -0.04412631895192923
0.3431591298005543 -0.043851413226911155
0.35485766137276875 -0.0435135697140511
0.36664362126255073 -0.04311971643823901
0.3785099100483679 -0.04267812515810426
0.3904493799215649 -0.04219797731989611
0.4024548389919357 -0.04168887504029777
0.41451905561984914 -0.0411603316817317
0.42663476277231926 -0.04062127788803848
0.43879466240039156 -0.040079617361082905
0.4509914298352198 -0.03954186233863619
0.46321771820016633 -0.039012872072089075
0.475466162836291 -0.03849570918669671
0.4877293857385438 -0.03799161936764352
0.4999999999999999 -0.037500130160235824
0.512270614261456 -0.037019255615836306
0.5245338371637088 -0.036545785805076524
0.5367822817998334 -0.036075634474571724
0.54900857016478 -0.03560421477857559
0.5612053375996082 -0.0351268122909109
0.5733652372276805 -0.034638926380473924
0.5854809443801506 -0.034136555274117096
0.5975451610080642 -0.03361640629154142
0.6095506200784349 -0.033076020218801655
0.6214900899516319 -0.03251380689112859
0.6333563787374491 -0.03192899704810557
0.645142338627231 -0.03132152270282809
0.6568408701994456 -0.03069184402387268
0.6684449266961098 -0.030040744603776752
0.6799475182674938 -0.029369118703804417
0.691341716182545 -0.028677773549905264
0.7026206570024947 -0.027967267141729358
0.713777546715141 -0.027237797644671685
0.7248056648273034 -0.026489154734935405
0.7356983684129987 -0.02572073683347523
0.746449096114892 -0.024931631617105862
0.7570513720966108 -0.02412075114228408
0.7674988099435485 -0.023287007898685912
0.7777851165098009 -0.022429514548599552
0.7879040957089227 -0.021547788275063078
0.7978496522462164 -0.02064194065524363
0.8076157952903136 -0.019712835719479217
0.8171966420818224 -0.01876220211338047
0.8265864214768883 -0.017792689680980016
0.8357794774235092 -0.016807865870173754
0.8447702723685334 -0.015812152623075962
0.8535533905932737 -0.014810709355755992
0.8621235414757333 -0.013809271811163742
0.8704755626774794 -0.012813959638294741
0.8786044232532422 -0.011831067287224495
0.8865052266813687 -0.010866853132118328
0.894173213813303 -0.009927340703787445
0.9016037657403225 -0.009018143720470818
0.9087924065757916 -0.008144323545026593
0.9157348061512727 -0.007310284132444111
0.9224267826248536 -0.006519705855883666
0.928864305000136 -0.005775516191294326
0.9350434955543556 -0.0050798924270193885
0.9409606321741775 -0.004434289588912296
0.9466121505977576 -0.003839485771357059
0.9519946465617215 -0.0032956370634347485
0.9571048778517655 -0.0028023351688693855
0.9619397662556433 -0.0023586624532480256
0.9664963994173694 -0.0019632412555421618
0.9707720325915102 -0.0016142765764854516
0.9747640902965183 -0.0013095934024221333
0.9784701678661044 -0.0010466716680638051
0.98188803289772 -0.0008226829931362287
0.985015626597272 -0.0006345337163488451
0.9878510650192642 -0.0004789183604614218
0.9903926402016152 -0.00035238655580277435
0.9926388211944706 -0.0002514247746812766
0.9945882549823906 -0.00017255220176655802
0.9962397672993549 -0.00011242794302508619
0.9975923633360985 -6.796482591964331e-05
0.998645228339345 -3.644351299973472e-05
0.9993977281025862 -1.5619736556167634e-05
0.9998494093481021 -3.817288025469965e-06
1.0 0.0
