1.0 0.0
0.9998494093481021 1.7893164961578522e-05
0.9993977281025862 7.167963684418768e-05
0.998645228339345 0.00016167554975175745
0.9975923633360985 0.00028839283423966433
0.9962397672993549 0.000452520216653014
0.9945882549823906 0.0006549029196593925
0.9926388211944706 0.000896526101162798
0.9903926402016152 0.0011785068970712601
0.9878510650192642 0.0015020988682180627
0.985015626597272 0.00186871079397788
0.98188803289772 0.0022799393221938063
0.9784701678661044 0.002737612285549431
0.9747640902965183 0.003243836890728817
0.9707720325915102 0.0038010448491542824
0.9664963994173694 0.0044120251780971785
0.9619397662556433 0.005079935106708852
0.9571048778517655 0.005808280403316854
0.9519946465617215 0.006600858489465525
0.9466121505977576 0.007461660770276174
0.9409606321741775 0.008394734406561084
0.9350434955543556 0.009404007896751795
0.928864305000136 0.010493088881544462
0.9224267826248536 0.01166504607758045
0.9157348061512727 0.012922189778740335
0.9087924065757916 0.014265866618022963
0.9016037657403225 0.015696284075185394
0.894173213813303 0.017212378518099727
0.8865052266813687 0.01881173751580929
0.8786044232532422 0.020490583046925213
0.8704755626774794 0.02224381745817628
0.8621235414757333 0.024065129091184148
0.8535533905932737 0.025947149899486516
0.8447702723685334 0.02788165359525064
0.8357794774235092 0.029859780278307515
0.8265864214768883 0.03187227235631386
0.8171966420818224 0.033909706946818996
0.8076157952903136 0.03596271176796129
0.7978496522462164 0.038022154518374325
0.7879040957089227 0.04007929952839918
0.7777851165098009 0.04212592955597594
0.7674988099435485 0.04415443449363084
0.7570513720966108 0.04615787197181909
0.746449096114892 0.04813000700344259
0.7356983684129987 0.05006533866932294
0.7248056648273034 0.05195912132149484
0.713777546715141 0.05380738599088541
0.7026206570024947 0.055606964911485306
0.691341716182545 0.05735551873756234
0.6799475182674938 0.05905156264527344
0.6684449266961098 0.060694484610830844
0.6568408701994456 0.06228454723447994
0.645142338627231 0.06382286391139937
0.6333563787374491 0.06531134114874636
0.6214900899516319 0.06675258140034394
0.6095506200784349 0.06814974472850335
0.5975451610080642 0.06950637249508407
0.5854809443801506 0.07082618155700653
0.5733652372276805 0.07211284242012306
0.5612053375996082 0.07336975879209845
0.54900857016478 0.07459986833539813
0.5367822817998334 0.07580548466782934
0.5245338371637088 0.07698819852013572
0.512270614261456 0.07814885143480577
0.4999999999999999 0.07928758876262361
0.4877293857385438 0.08040399054530539
0.475466162836291 0.0814972699576359
0.46321771820016633 0.08256652027225507
0.4509914298352198 0.08361098381623304
0.43879466240039156 0.0846303110717839
0.42663476277231926 0.08562477573209624
0.41451905561984914 0.08659541269145522
0.4024548389919357 0.08754405081841353
0.3904493799215649 0.08847322073584998
0.3785099100483679 0.08938592912300378
0.36664362126255073 0.090285304316091
0.35485766137276875 0.09117413199097034
0.3431591298005543 0.09205431307181704
0.33155507330389 0.09292628730176826
0.320052481732506 0.0937884738299177
0.30865828381745486 0.0946367836688873
0.29737934299750524 0.0954642572971916
0.28622245328485874 0.09626087383305502
0.27519433517269654 0.09701356642253452
0.26430163158700104 0.0977064626089757
0.2535509038851079 0.09832134978098794
0.2429486279033891 0.09883834597575945
0.23250119005645137 0.09923673718398911
0.2222148834901989 0.09949592572421861
0.2120959042910774 0.09959642192721388
0.20215034775378343 0.09952080465585988
0.19238420470968637 0.09925457595586261
0.18280335791817703 0.09878684166740449
0.17341357852311146 0.09811076276461231
0.16422052257649067 0.09722374053429171
0.15522972763146647 0.09612732090852544
0.14644660940672616 0.09482682735614409
0.1378764585242665 0.09333075550176319
0.12952443732252045 0.09164998383031753
0.12139557674675777 0.08979687138675858
0.11349477331863145 0.08778432362277724
0.10582678618669683 0.08562491036755546
0.09839623425967753 0.08333011488703833
0.09120759342420814 0.08090978047029554
0.08426519384872727 0.07837180199749572
0.07757321737514639 0.0757220862021663
0.07113569499986394 0.07296477803498776
0.06495650444564427 0.07010272415271147
0.059039367825822475 0.06713812063474044
0.05338784940224234 0.0640732729222206
0.048005353438278275 0.06091138360896173
0.042895122148234655 0.057657279402169075
0.038060233744356575 0.054317992870981685
0.03350360058263052 0.05090312724764544
0.029227967408489597 0.047424952465732376
0.025235909703481607 0.043898206019691195
0.021529832133895532 0.04033960076169435
0.018111967102280024 0.03676707072937916
0.014984373402728013 0.03319881275280011
0.012148934980735715 0.0296522033344125
0.009607359798384785 0.02614268497957125
0.007361178805529334 0.02268272226978412
0.005411745017609493 0.019280924807096218
0.0037602327006450165 0.015941421879252304
0.0024076366639015356 0.012663553331637475
0.0013547716606548965 0.00944191448855302
0.0006022718974137975 0.006266762457331033
0.00015059065189787502 0.0031247595714766286
0.0 0.0
0.00015059065189787502 -0.0021136758861665453
0.0006022718974137975 -0.004217442724087378
0.0013547716606548965 -0.006301844580690515
0.0024076366639015356 -0.008358298751273563
0.0037602327006450165 -0.010379452400096151
0.005411745017609493 -0.012359450124648595
0.007361178805529334 -0.014294093665712316
0.009607359798384785 -0.016180883241533578
0.012148934980735715 -0.018018939031127404
0.014984373402728013 -0.0198088104669397
0.018111967102280024 -0.021552189511042784
0.021529832133895532 -0.023251551319225978
0.025235909703481607 -0.02490975108027465
0.029227967408489597 -0.026529608933358657
0.03350360058263052 -0.028113515471648354
0.038060233744356575 -0.029663088388896256
0.042895122148234655 -0.031178906473283505
0.048005353438278275 -0.03266034074549129
0.05338784940224234 -0.03410549458628693
0.059039367825822475 -0.03551125583843538
0.06495650444564427 -0.03687345480908733
0.07113569499986394 -0.0381871135713492
0.07757321737514639 -0.03944676465715691
0.08426519384872727 -0.0406468117417738
0.09120759342420814 -0.041781901692500005
0.09839623425967753 -0.04284727665738397
0.10582678618669683 -0.04383907676493916
0.11349477331863145 -0.04475456834152642
0.12139557674675777 -0.045592278975514336
0.12952443732252045 -0.04635202873815177
0.1378764585242665 -0.04703485574926983
0.14644660940672616 -0.04764284331157324
0.15522972763146647 -0.048178864272574555
0.16422052257649067 -0.048646265395726765
0.17341357852311146 -0.049048519725166266
0.18280335791817703 -0.04938887776253592
0.19238420470968637 -0.04967004848757049
0.20215034775378343 -0.049893938814710916
0.2120959042910774 -0.050061475179155566
0.2222148834901989 -0.05017252399118072
0.23250119005645137 -0.050225919268899466
0.2429486279033891 -0.050219596568228685
0.2535509038851079 -0.05015082315581743
0.26430163158700104 -0.05001650600048629
0.27519433517269654 -0.049813552311592596
0.28622245328485874 -0.04953925262222173
0.29737934299750524 -0.04919165421600557
0.30865828381745486 -0.04876989322770553
0.320052481732506 -0.04827445697425935
0.33155507330389 -0.047707353727149286
0.3431591298005543 -0.0470721747407958
0.35485766137276875 -0.0463740422577068
0.36664362126255073 -0.04561944665796479
0.3785099100483679 -0.04481598509912939
0.3904493799215649 -0.04397202211623204
0.4024548389919357 -0.04309629902506717
0.41451905561984914 -0.04219752305244879
0.42663476277231926 -0.04128396856121268
0.43879466240039156 -0.040363121431809916
0.4509914298352198 -0.039441393731855325
0.46321771820016633 -0.03852392960307091
0.475466162836291 -0.037614515370624234
0.4877293857385438 -0.03671559792862115
0.4999999999999999 -0.035828406257971714
0.512270614261456 -0.03495316228511832
0.5245338371637088 -0.03408935993359215
0.5367822817998334 -0.03323608577680634
0.54900857016478 -0.03239235161818059
0.5612053375996082 -0.03155740884052021
0.5733652372276805 -0.03073101648744183
0.5854809443801506 -0.029913639544557738
0.5975451610080642 -0.029106560350790303
0.6095506200784349 -0.02831189389961149
0.6214900899516319 -0.027532506285519287
0.6333563787374491 -0.02677184396625361
0.645142338627231 -0.026033689121096618
0.6568408701994456 -0.02532186255046305
0.6684449266961098 -0.024639899782777887
0.6799475182674938 -0.023990728014162833
0.691341716182545 -0.023376371093400922
0.7026206570024947 -0.02279770707838016
0.713777546715141 -0.0222542982262723
0.7248056648273034 -0.021744307097799294
0.7356983684129987 -0.021264505333814562
0.746449096114892 -0.020810374240196713
0.7570513720966108 -0.02037628923745333
0.7674988099435485 -0.019955774081718572
0.7777851165098009 -0.01954180602467148
0.7879040957089227 -0.0191271500859461
0.7978496522462164 -0.018704699527028485
0.8076157952903136 -0.018267800426574814
0.8171966420818224 -0.01781054078109661
0.8265864214768883 -0.017327988466011034
0.8357794774235092 -0.016816367258141132
0.8447702723685334 -0.016273165449954274
0.8535533905932737 -0.015697176876132233
0.8621235414757333 -0.015088478960778202
0.8704755626774794 -0.01444835629573168
0.8786044232532422 -0.013779181007227253
0.8865052266813687 -0.013084262622256938
0.894173213813303 -0.012367680308068129
0.9016037657403225 -0.011634109357639824
0.9087924065757916 -0.010888651867172767
0.9157348061512727 -0.010136679010377321
0.9224267826248536 -0.009383689507813504
0.928864305000136 -0.00863518616427427
0.9350434955543556 -0.007896570009488253
0.9409606321741775 -0.007173049861753983
0.9466121505977576 -0.006469564181158596
0.9519946465617215 -0.0057907119248573925
0.9571048778517655 -0.005140689694478099
0.9619397662556433 -0.00452323361800936
0.9664963994173694 -0.003941565911282382
0.9707720325915102 -0.0033983476556965733
0.9747640902965183 -0.0028956407432816707
0.9784701678661044 -0.002434882940231967
0.98188803289772 -0.0020168804256355246
0.985015626597272 -0.0016418218719056249
0.9878510650192642 -0.0013093171365876077
0.9903926402016152 -0.001018462012609454
0.9926388211944706 -0.0007679283985239156
0.9945882549823906 -0.0005560769275863864
0.9962397672993549 -0.00038108679685643944
0.9975923633360985 -0.00024109553307848504
0.998645228339345 -0.0001343399638043107
0.9993977281025862 -5.9288919367511176e-05
0.9998494093481021 -1.4758287352058108e-05
1.0 0.0
