1.0 0.0
0.9998494093481021 2.6495152086844057e-05
0.9993977281025862 0.00010583102172182571
0.998645228339345 0.0002375601120354819
0.9975923633360985 0.00042094161834999505
0.9962397672993549 0.0006549516599065844
0.9945882549823906 0.0009383024770161619
0.9926388211944706 0.0012694743262750127
0.9903926402016152 0.001646763425394239
0.9878510650192642 0.0020683481241525977
0.985015626597272 0.002532373609431313
0.98188803289772 0.0030370530975318767
0.9784701678661044 0.0035807809160083555
0.9747640902965183 0.004162250467286197
0.9707720325915102 0.004780568139267993
0.9664963994173694 0.005435353086126709
0.9619397662556433 0.006126812667392978
0.9571048778517655 0.006855784314971604
0.9519946465617215 0.007623736674767069
0.9466121505977576 0.00843272588715149
0.9409606321741775 0.009285306553074383
0.9350434955543556 0.010184400912715767
0.928864305000136 0.011133133622436174
0.9224267826248536 0.012134642831258792
0.9157348061512727 0.013191880654604521
0.9087924065757916 0.014307417336901726
0.9016037657403225 0.015483263230222033
0.894173213813303 0.01672072118666967
0.8865052266813687 0.018020279214650863
0.8786044232532422 0.01938154956955476
0.8704755626774794 0.02080325623249959
0.8621235414757333 0.022283268435574093
0.8535533905932737 0.023818673988629115
0.8447702723685334 0.025405883077436103
0.8357794774235092 0.02704075126720291
0.8265864214768883 0.028718709854726156
0.8171966420818224 0.03043489250189598
0.8076157952903136 0.03218424912106911
0.7978496522462164 0.033961640984292836
0.7879040957089227 0.035761914588689714
0.7777851165098009 0.03757995545277934
0.7674988099435485 0.03941072625253864
0.7570513720966108 0.041249296088512855
0.746449096114892 0.04309086886765138
0.7356983684129987 0.044930818597493254
0.7248056648273034 0.04676473781645836
0.713777546715141 0.048588502599206045
0.7026206570024947 0.05039835392792721
0.691341716182545 0.05219099119010424
0.6799475182674938 0.05396366970975355
0.6684449266961098 0.05571429111197136
0.6568408701994456 0.057441473467782146
0.645142338627231 0.059144587946533204
0.6333563787374491 0.060823750310387635
0.6214900899516319 0.06247975899336401
0.6095506200784349 0.0641139764581078
0.5975451610080642 0.06572815654466477
0.5854809443801506 0.06732422697302623
0.5733652372276805 0.0689040422860783
0.5612053375996082 0.07046912755032193
0.54900857016478 0.07202043636467059
0.5367822817998334 0.07355814761461166
0.5245338371637088 0.07508152363229549
0.512270614261456 0.07658884794803893
0.4999999999999999 0.07807745391724
0.4877293857385438 0.07954384674709761
0.475466162836291 0.08098391165020452
0.46321771820016633 0.08239319101413621
0.4509914298352198 0.08376720467195527
0.43879466240039156 0.08510178062576479
0.42663476277231926 0.08639335979877835
0.41451905561984914 0.08763923819637993
0.4024548389919357 0.0888377135259597
0.3904493799215649 0.08998811074753504
0.3785099100483679 0.09109067168550126
0.36664362126255073 0.09214630683574028
0.35485766137276875 0.09315622166056685
0.3431591298005543 0.09412144359376813
0.33155507330389 0.09504228823937164
0.320052481732506 0.09591781249097647
0.30865828381745486 0.09674530740865962
0.29737934299750524 0.09751988391463712
0.28622245328485874 0.0982341994109857
0.27519433517269654 0.0988783634955886
0.26430163158700104 0.09944004677920347
0.2535509038851079 0.09990479956964908
0.2429486279033891 0.10025656843026509
0.23250119005645137 0.10047838009886406
0.2222148834901989 0.10055314577976258
0.2120959042910774 0.10046452607400179
0.20215034775378343 0.10019778916655024
0.19238420470968637 0.09974059326662711
0.18280335791817703 0.09908362906026695
0.17341357852311146 0.09822106882935698
0.16422052257649067 0.09715078505482037
0.15522972763146647 0.09587432134602529
0.14644660940672616 0.09439662059638435
0.1378764585242665 0.09272553727783307
0.12952443732252045 0.09087118062379022
0.12139557674675777 0.08884515113833609
0.11349477331863145 0.08665974279302255
0.10582678618669683 0.08432718634274182
0.09839623425967753 0.08185900496664857
0.09120759342420814 0.07926554218435815
0.08426519384872727 0.07655570467421877
0.07757321737514639 0.07373694081065871
0.07113569499986394 0.07081545149934536
0.06495650444564427 0.06779660556425868
0.059039367825822475 0.06468550993140754
0.05338784940224234 0.06148766738581392
0.048005353438278275 0.058209643579351746
0.042895122148234655 0.05485966147895851
0.038060233744356575 0.05144804609016773
0.03350360058263052 0.047987454807768525
0.029227967408489597 0.04449284809769898
0.025235909703481607 0.04098117967890483
0.021529832133895532 0.03747081269606017
0.018111967102280024 0.033980695977219075
0.014984373402728013 0.030529359700894113
0.012148934980735715 0.027133810179309915
0.009607359798384785 0.023808416943348638
0.007361178805529334 0.020563890458855885
0.005411745017609493 0.017406444952730093
0.0037602327006450165 0.014337228163292377
0.0024076366639015356 0.011352079371685435
0.0013547716606548965 0.008441650586197327
0.0006022718974137975 0.005591895593189019
0.00015059065189787502 0.0027849004788193044
0.0 0.0
0.00015059065189787502 -0.0023631886330612822
0.0006022718974137975 -0.004708888346249124
0.0013547716606548965 -0.007020276097190573
0.0024076366639015356 -0.009281820489516627
0.0037602327006450165 -0.01147983012327068
0.005411745017609493 -0.013602892611187828
0.007361178805529334 -0.015642179933006987
0.009607359798384785 -0.01759160502377109
0.012148934980735715 -0.019447824672358307
0.014984373402728013 -0.021210094195492503
0.018111967102280024 -0.022879989190001494
0.021529832133895532 -0.024461018236742196
0.025235909703481607 -0.02595815711680808
0.029227967408489597 -0.027377339433307217
0.03350360058263052 -0.02872494022023123
0.038060233744356575 -0.030007288076987586
0.042895122148234655 -0.031230237715819106
0.048005353438278275 -0.032398828872139455
0.05338784940224234 -0.03351704980171102
0.059039367825822475 -0.03458771470579816
0.06495650444564427 -0.03561245510346355
0.07113569499986394 -0.03659181615490637
0.07757321737514639 -0.037525440945844694
0.08426519384872727 -0.038412319396535714
0.09120759342420814 -0.039251074247096555
0.09839623425967753 -0.040040254801614945
0.10582678618669683 -0.040778609891435544
0.11349477331863145 -0.04146531473468149
0.12139557674675777 -0.042100131712484605
0.12952443732252045 -0.042683492062642554
0.1378764585242665 -0.0432164934817093
0.14644660940672616 -0.04370081691597634
0.15522972763146647 -0.04413857367580828
0.16422052257649067 -0.044532100730943415
0.17341357852311146 -0.04488372704048896
0.18280335791817703 -0.04519553659565809
0.19238420470968637 -0.04546915425194208
0.20215034775378343 -0.04570557836077494
0.2120959042910774 -0.045905079858399575
0.2222148834901989 -0.04606718121615569
0.23250119005645137 -0.04619072105899875
0.2429486279033891 -0.04627400199977505
0.2535509038851079 -0.046315011063020155
0.26430163158700104 -0.04631169473078056
0.27519433517269654 -0.04626226481412654
0.28622245328485874 -0.04616550758921915
0.29737934299750524 -0.0460210673086957
0.30865828381745486 -0.045829676466275296
0.320052481732506 -0.04559330898283128
0.33155507330389 -0.04531523849708713
0.3431591298005543 -0.04499999168265565
0.35485766137276875 -0.04465319531483357
0.36664362126255073 -0.0442813249126706
0.3785099100483679 -0.043891371386577095
0.3904493799215649 -0.04349044946714121
0.4024548389919357 -0.0430853771189994
0.41451905561984914 -0.04268225816017514
0.42663476277231926 -0.042286100626632635
0.43879466240039156 -0.04190050099373724
0.4509914298352198 -0.04152741938192875
0.46321771820016633 -0.041167063749580846
0.475466162836291 -0.040817892417182346
0.4877293857385438 -0.04047673481480627
0.4999999999999999 -0.040139020910511296
0.512270614261456 -0.03979910116996482
0.5245338371637088 -0.0394506318522734
0.5367822817998334 -0.0390869955595772
0.54900857016478 -0.03870172463237787
0.5612053375996082 -0.0382888953957549
0.5733652372276805 -0.03784346434896758
0.5854809443801506 -0.037361522853594904
0.5975451610080642 -0.03684045420877398
0.6095506200784349 -0.03627898554288304
0.6214900899516319 -0.03567713593796234
0.6333563787374491 -0.03503607084648215
0.645142338627231 -0.03435788041262174
0.6568408701994456 -0.033645305134075064
0.6684449266961098 -0.0329014359226184
0.6799475182674938 -0.03212941677437082
0.691341716182545 -0.031332176901734225
0.7026206570024947 -0.030512215491828185
0.713777546715141 -0.029671456628878497
0.7248056648273034 -0.02881118490380538
0.7356983684129987 -0.027932064497971008
0.746449096114892 -0.027034236782890984
0.7570513720966108 -0.026117484419039484
0.7674988099435485 -0.025181444179031176
0.7777851165098009 -0.02422584674252257
0.7879040957089227 -0.023250759815540447
0.7978496522462164 -0.022256811220274772
0.8076157952903136 -0.021245370984630675
0.8171966420818224 -0.020218675648418196
0.8265864214768883 -0.019179883554037273
0.8357794774235092 -0.01813305625358569
0.8447702723685334 -0.017083067736571634
0.8535533905932737 -0.016035449361671426
0.8621235414757333 -0.014996183620732396
0.8704755626774794 -0.013971463740159581
0.8786044232532422 -0.01296743834523171
0.8865052266813687 -0.0119899608539897
0.894173213813303 -0.011044361976892916
0.9016037657403225 -0.010135260882747774
0.9087924065757916 -0.009266426588500598
0.9157348061512727 -0.008440696371564712
0.9224267826248536 -0.007659952966912223
0.928864305000136 -0.006925157474374157
0.9350434955543556 -0.006236430694151421
0.9409606321741775 -0.005593172373255121
0.9466121505977576 -0.004994205809656099
0.9519946465617215 -0.004437934520103152
0.9571048778517655 -0.003922498194564848
0.9619397662556433 -0.0034459167766508723
0.9664963994173694 -0.003006213969436078
0.9707720325915102 -0.002601514449371532
0.9747640902965183 -0.002230112229773647
0.9784701678661044 -0.001890510613297896
0.98188803289772 -0.001581436719575276
0.985015626597272 -0.0013018354538190992
0.9878510650192642 -0.0010508488712491543
0.9903926402016152 -0.0008277871667933044
0.9926388211944706 -0.0006320970509356471
0.9945882549823906 -0.0004633322119759915
0.9962397672993549 -0.0003211291199916914
0.9975923633360985 -0.00020518983365466423
0.998645228339345 -0.00011527195981286423
0.9993977281025862 -5.1184687417791563e-05
0.9998494093481021 -1.2789016278326893e-05
1.0 0.0
