1.0 0.0
0.9998494093481021 2.4603256951701193e-05
0.9993977281025862 9.829247142401135e-05
0.998645228339345 0.0002207086321384671
0.9975923633360985 0.00039126285344139006
0.9962397672993549 0.0006091525619424467
0.9945882549823906 0.0008733876581185088
0.9926388211944706 0.0011828291211868147
0.9903926402016152 0.0015362419341708692
0.9878510650192642 0.0019323629275375528
0.985015626597272 0.0023699822904169627
0.98188803289772 0.0028480352959956118
0.9784701678661044 0.003365698525829027
0.9747640902965183 0.003922482889285557
0.9707720325915102 0.004518314347343636
0.9664963994173694 0.005153592743315798
0.9619397662556433 0.005829219705503973
0.9571048778517655 0.006546588286022195
0.9519946465617215 0.007307529765714388
0.9466121505977576 0.008114216678305204
0.9409606321741775 0.00896902525685643
0.9350434955543556 0.00987436476209416
0.928864305000136 0.010832485050707125
0.9224267826248536 0.011845276825812595
0.9157348061512727 0.012914080886914706
0.9087924065757916 0.014039523079184425
0.9016037657403225 0.015221390397040848
0.894173213813303 0.01645856086129077
0.8865052266813687 0.017748995573572776
0.8786044232532422 0.019089796125778085
0.8704755626774794 0.020477324797730442
0.8621235414757333 0.021907379278879955
0.8535533905932737 0.023375408577229397
0.8447702723685334 0.02487675285929338
0.8357794774235092 0.026406887617604843
0.8265864214768883 0.027961652048862893
0.8171966420818224 0.02953744291903009
0.8076157952903136 0.031131358364224034
0.7978496522462164 0.03274128071176469
0.7879040957089227 0.03436589303128647
0.7777851165098009 0.036004630162332435
0.7674988099435485 0.03765757079013658
0.7570513720966108 0.03932528215882483
0.746449096114892 0.041008632716484535
0.7356983684129987 0.04270859002367235
0.7248056648273034 0.044426021458948445
0.713777546715141 0.046161513662543494
0.7026206570024947 0.04791522351536473
0.691341716182545 0.04968676917210244
0.6799475182674938 0.05147516479557356
0.6684449266961098 0.05327879777605164
0.6568408701994456 0.05509544295346551
0.645142338627231 0.0569223051975042
0.6333563787374491 0.058756080000197636
0.6214900899516319 0.06059302166491984
0.6095506200784349 0.06242901018757649
0.5975451610080642 0.06425961076057635
0.5854809443801506 0.06608012354576343
0.5733652372276805 0.06788562538630576
0.5612053375996082 0.06967100882734614
0.54900857016478 0.07143102657941984
0.5367822817998334 0.07316035087719039
0.5245338371637088 0.07485365672219996
0.512270614261456 0.07650573564198408
0.4999999999999999 0.07811164249367199
0.4877293857385438 0.07966687238526637
0.475466162836291 0.0811675585987863
0.46321771820016633 0.08261067625042896
0.4509914298352198 0.08399423116061741
0.43879466240039156 0.08531740985180683
0.42663476277231926 0.08658066543654994
0.41451905561984914 0.08778571587307692
0.4024548389919357 0.08893543582537623
0.3904493799215649 0.090033631004287
0.3785099100483679 0.09108469387176932
0.36664362126255073 0.0920931511309248
0.35485766137276875 0.09306312541881995
0.3431591298005543 0.09399774483856149
0.33155507330389 0.09489854315736425
0.320052481732506 0.095764899513906
0.30865828381745486 0.09659356841649841
0.29737934299750524 0.09737834812176516
0.28622245328485874 0.09810992804441414
0.27519433517269654 0.0987759440200514
0.26430163158700104 0.09936125485003663
0.2535509038851079 0.0998484358359987
0.2429486279033891 0.10021846650584781
0.23250119005645137 0.10045157215527492
0.2222148834901989 0.1005281638955126
0.2120959042910774 0.10042981115811987
0.20215034775378343 0.10014017527798325
0.19238420470968637 0.09964583360556564
0.18280335791817703 0.09893693077387082
0.17341357852311146 0.09800760684353084
0.16422052257649067 0.09685617006015351
0.15522972763146647 0.09548500335770825
0.14644660940672616 0.09390021662404467
0.1378764585242665 0.09211107899450419
0.12952443732252045 0.09012928493354
0.12139557674675777 0.08796812267850673
0.11349477331863145 0.08564162222513821
0.10582678618669683 0.08316376145816234
0.09839623425967753 0.0805478029688999
0.09120759342420814 0.0778058209679349
0.08426519384872727 0.07494845860557908
0.07757321737514639 0.07198493267396523
0.07113569499986394 0.06892327725607643
0.06495650444564427 0.0657707928381157
0.059039367825822475 0.06253464516644512
0.05338784940224234 0.05922254094941495
0.048005353438278275 0.0558433971815858
0.042895122148234655 0.05240791858479836
0.038060233744356575 0.04892900384802656
0.03350360058263052 0.0454219156275295
0.029227967408489597 0.04190417047210973
0.025235909703481607 0.03839513110334605
0.021529832133895532 0.03491531241742297
0.018111967102280024 0.03148544148495357
0.014984373402728013 0.028125337953862063
0.012148934980735715 0.02485270206095334
0.009607359798384785 0.021681910837134496
0.007361178805529334 0.018622927616796323
0.005411745017609493 0.01568042500781732
0.0037602327006450165 0.012853207296692492
0.0024076366639015356 0.010133995970398829
0.0013547716606548965 0.007509613520030501
0.0006022718974137975 0.004961568439321179
0.00015059065189787502 0.0024670112054747608
0.0 0.0
0.00015059065189787502 -0.0024321899383304237
0.0006022718974137975 -0.004843416239070852
0.0013547716606548965 -0.007213484351898824
0.0024076366639015356 -0.009523693310710324
0.0037602327006450165 -0.011757474142974993
0.005411745017609493 -0.013900906651061256
0.007361178805529334 -0.015943087404571902
0.009607359798384785 -0.017876331965046392
0.012148934980735715 -0.0196962055979911
0.014984373402728013 -0.02140138818555159
0.018111967102280024 -0.022993389897282043
0.021529832133895532 -0.024476143618508278
0.025235909703481607 -0.025855507498523115
0.029227967408489597 -0.027138715749065075
0.03350360058263052 -0.028333817682727483
0.038060233744356575 -0.029449143840878007
0.042895122148234655 -0.0304928340614121
0.048005353438278275 -0.03147245583692584
0.05338784940224234 -0.032394732862228506
0.059039367825822475 -0.03326539396130139
0.06495650444564427 -0.03408914240362303
0.07113569499986394 -0.03486973578258089
0.07757321737514639 -0.035610157912574575
0.08426519384872727 -0.03631285728625396
0.09120759342420814 -0.036980022046522634
0.09839623425967753 -0.03761385950241568
0.10582678618669683 -0.03821684906588882
0.11349477331863145 -0.03879194099097487
0.12139557674675777 -0.03934267912198931
0.12952443732252045 -0.03987323347753147
0.1378764585242665 -0.040388337239967965
0.14644660940672616 -0.04089313182443326
0.15522972763146647 -0.04139293238032119
0.16422052257649067 -0.041892933586045664
0.17341357852311146 -0.04239788129299672
0.18280335791817703 -0.04291173897428363
0.19238420470968637 -0.04343737875499776
0.20215034775378343 -0.04397632498421125
0.2120959042910774 -0.04452857402447412
0.2222148834901989 -0.04509250756600693
0.23250119005645137 -0.045664908884635994
0.2429486279033891 -0.04624108275090208
0.2535509038851079 -0.046815070929541396
0.26430163158700104 -0.04737994715415145
0.27519433517269654 -0.04792816882766019
0.28622245328485874 -0.048451958065190516
0.29737934299750524 -0.04894368246439827
0.30865828381745486 -0.04939620634834749
0.320052481732506 -0.04980318613627257
0.33155507330389 -0.05015928869033938
0.3431591298005543 -0.050460318491152054
0.35485766137276875 -0.0507032476798446
0.36664362126255073 -0.050886151634461495
0.3785099100483679 -0.05100806104897023
0.3904493799215649 -0.0510687487119061
0.4024548389919357 -0.05106847469365992
0.41451905561984914 -0.05100771695827057
0.42663476277231926 -0.050886915228945694
0.43879466240039156 -0.0507062541941804
0.4509914298352198 -0.050465508012579416
0.46321771820016633 -0.050163961944569964
0.475466162836291 -0.04980041937408857
0.4877293857385438 -0.04937329417806574
0.4999999999999999 -0.0488807801168121
0.512270614261456 -0.04832108141129613
0.5245338371637088 -0.04769268262834386
0.5367822817998334 -0.04699463196190281
0.54900857016478 -0.046226810343290875
0.5612053375996082 -0.045390159684370095
0.5733652372276805 -0.04448684687365228
0.5854809443801506 -0.04352034560381156
0.5975451610080642 -0.04249542521437707
0.6095506200784349 -0.04141804384304503
0.6214900899516319 -0.04029515156296684
0.6333563787374491 -0.03913441709058346
0.645142338627231 -0.037943898375616916
0.6568408701994456 -0.036731682339079065
0.6684449266961098 -0.03550552177756037
0.6799475182674938 -0.03427249777435122
0.691341716182545 -0.03303873384111169
0.7026206570024947 -0.03180918366628604
0.713777546715141 -0.030587508172483464
0.7248056648273034 -0.029376050145367077
0.7356983684129987 -0.0281759066554424
0.746449096114892 -0.02698709155764696
0.7570513720966108 -0.025808773205393133
0.7674988099435485 -0.02463956675564265
0.7777851165098009 -0.023477856533695295
0.7879040957089227 -0.022322122160050584
0.7978496522462164 -0.02117124260995859
0.8076157952903136 -0.020024754972509752
0.8171966420818224 -0.01888304910935819
0.8265864214768883 -0.0177474852398792
0.8357794774235092 -0.016620428148622794
0.8447702723685334 -0.015505198617182997
0.8535533905932737 -0.014405949223798889
0.8621235414757333 -0.01332747728541249
0.8704755626774794 -0.012274991998818104
0.8786044232532422 -0.01125385547108516
0.8865052266813687 -0.010269318177890906
0.894173213813303 -0.009326268482322504
0.9016037657403225 -0.008429013373065133
0.9087924065757916 -0.00758110385780224
0.9157348061512727 -0.006785213887728783
0.9224267826248536 -0.006043076755469761
0.928864305000136 -0.005355478068315844
0.9350434955543556 -0.0047223000775200715
0.9409606321741775 -0.004142608689024891
0.9466121505977576 -0.0036147721300916966
0.9519946465617215 -0.003136599114391986
0.9571048778517655 -0.002705484422640002
0.9619397662556433 -0.002318550967310034
0.9664963994173694 -0.0019727794134128548
0.9707720325915102 -0.0016651189922699749
0.9747640902965183 -0.0013925759508168609
0.9784701678661044 -0.001152278809883907
0.98188803289772 -0.0009415219846109682
0.985015626597272 -0.0007577911378128369
0.9878510650192642 -0.0005987747655766899
0.9903926402016152 -0.0004623669177490504
0.9926388211944706 -0.00034666568641141644
0.9945882549823906 -0.0002499712800479916
0.9962397672993549 -0.0001707863208728863
0.9975923633360985 -0.00010781966640203972
0.998645228339345 -5.999377214479766e-05
0.9993977281025862 -2.645456161994445e-05
0.9998494093481021 -6.582085264661021e-06
1.0 0.0
