1.0 0.0
0.9998494093481021 2.1163418356233473e-05
0.9993977281025862 8.483449826405365e-05
0.998645228339345 0.00019154476692794718
0.9975923633360985 0.0003421448471882934
0.9962397672993549 0.0005377557334617253
0.9945882549823906 0.0007797083298847258
0.9926388211944706 0.0010694777532763722
0.9903926402016152 0.0014086191603382113
0.9878510650192642 0.00179871121053742
0.985015626597272 0.002241311804310632
0.98188803289772 0.002737928631833342
0.9784701678661044 0.003290004608841415
0.9747640902965183 0.0038989157933725033
0.9707720325915102 0.004565977211715953
0.9664963994173694 0.005292450480741891
0.9619397662556433 0.006079546430620916
0.9571048778517655 0.006928416234423774
0.9519946465617215 0.00784012584187316
0.9466121505977576 0.008815610667325637
0.9409606321741775 0.009855610253887129
0.9350434955543556 0.010960585693732329
0.928864305000136 0.01213062554590977
0.9224267826248536 0.01336534846954266
0.9157348061512727 0.014663812438653584
0.9087924065757916 0.016024440969137174
0.9016037657403225 0.017444976135615527
0.894173213813303 0.01892246629624199
0.8865052266813687 0.020453293534202756
0.8786044232532422 0.0220332421559947
0.8704755626774794 0.023657605551311325
0.8621235414757333 0.025321324769081627
0.8535533905932737 0.027019148756901673
0.8447702723685334 0.028745803756890603
0.8357794774235092 0.03049615816167924
0.8265864214768883 0.03226536938327552
0.8171966420818224 0.03404900098540018
0.8076157952903136 0.03584310131805196
0.7978496522462164 0.03764423885809208
0.7879040957089227 0.03944949396597493
0.7777851165098009 0.04125641130704161
0.7674988099435485 0.043062921231257864
0.7570513720966108 0.04486724147972133
0.746449096114892 0.046667772316065184
0.7356983684129987 0.048462998344454444
0.7248056648273034 0.05025140883413316
0.713777546715141 0.052031445476676014
0.7026206570024947 0.05380148248881529
0.691341716182545 0.05555983931817488
0.6799475182674938 0.05730482148016079
0.6684449266961098 0.05903478084604945
0.6568408701994456 0.060748183564032235
0.645142338627231 0.06244367216213953
0.6333563787374491 0.06412010851965577
0.6214900899516319 0.06577658635769755
0.6095506200784349 0.0674124055215591
0.5975451610080642 0.06902700522537467
0.5854809443801506 0.07061985904532887
0.5733652372276805 0.07219034010586978
0.5612053375996082 0.0737375698880496
0.54900857016478 0.0752602677274665
0.5367822817998334 0.07675661981486338
0.5245338371637088 0.07822418601713012
0.512270614261456 0.07965986000248138
0.4999999999999999 0.08105989315889087
0.4877293857385438 0.08241998608736653
0.475466162836291 0.0837354437119149
0.46321771820016633 0.08500138212295673
0.4509914298352198 0.08621296808489341
0.43879466240039156 0.0873656665907994
0.42663476277231926 0.08845546870714889
0.41451905561984914 0.08947907176257804
0.4024548389919357 0.09043398693932654
0.3904493799215649 0.09131855542016803
0.3785099100483679 0.09213186296793505
0.36664362126255073 0.09287355338482567
0.35485766137276875 0.09354355267327
0.3431591298005543 0.09414172670123196
0.33155507330389 0.09466750453035046
0.320052481732506 0.09511950616205467
0.30865828381745486 0.09549521638939991
0.29737934299750524 0.09579074514445965
0.28622245328485874 0.09600070905527819
0.27519433517269654 0.09611825918336088
0.26430163158700104 0.09613526686329657
0.2535509038851079 0.09604266436490926
0.2429486279033891 0.09583092119265896
0.23250119005645137 0.09549062183008616
0.2222148834901989 0.09501309822833735
0.2120959042910774 0.09439106175583654
0.20215034775378343 0.09361917577199229
0.19238420470968637 0.0926945121048972
0.18280335791817703 0.09161684259879996
0.17341357852311146 0.09038873006735902
0.16422052257649067 0.08901540039953047
0.15522972763146647 0.08750439769371016
0.14644660940672616 0.08586504527395186
0.1378764585242665 0.08410775522885842
0.12952443732252045 0.08224324569401582
0.12139557674675777 0.08028173668652136
0.11349477331863145 0.07823220052613876
0.10582678618669683 0.076101740943035
0.09839623425967753 0.07389516575006488
0.09120759342420814 0.0716148020317505
0.08426519384872727 0.06926058143559677
0.07757321737514639 0.06683039818754999
0.07113569499986394 0.0643207161558582
0.06495650444564427 0.06172737613367987
0.059039367825822475 0.059046532957514254
0.05338784940224234 0.056275636323437586
0.048005353438278275 0.05341436092341346
0.042895122148234655 0.05046539185604751
0.038060233744356575 0.047434980444599185
0.03350360058263052 0.044333203063748286
0.029227967408489597 0.04117387997909126
0.025235909703481607 0.03797414049087837
0.021529832133895532 0.03475365228214205
0.018111967102280024 0.03153356395223377
0.014984373402728013 0.028335237398486687
0.012148934980735715 0.025178868367040634
0.009607359798384785 0.022082107003068986
0.007361178805529334 0.019058794171825186
0.005411745017609493 0.016117923127957595
0.0037602327006450165 0.013262920132650907
0.0024076366639015356 0.010491313107060692
0.0013547716606548965 0.007794826412536108
0.0006022718974137975 0.005159905025652576
0.00015059065189787502 0.0025686357683391654
0.0 0.0
0.00015059065189787502 -0.0025753770378498637
0.0006022718974137975 -0.005131106536220912
0.0013547716606548965 -0.007648227810575175
0.0024076366639015356 -0.010109112938268761
0.0037602327006450165 -0.012498033652572928
0.005411745017609493 -0.014801616711832317
0.007361178805529334 -0.017009163044512655
0.009607359798384785 -0.019112815466297835
0.012148934980735715 -0.02110757024300369
0.014984373402728013 -0.022991138461056045
0.018111967102280024 -0.024763673280330887
0.021529832133895532 -0.026427387942388584
0.025235909703481607 -0.027986096251720712
0.029227967408489597 -0.02944471164903315
0.03350360058263052 -0.0308087426505668
0.038060233744356575 -0.032083821242130314
0.042895122148234655 -0.033275296913467624
0.048005353438278275 -0.03438792272744112
0.05338784940224234 -0.03542565165053731
0.059039367825822475 -0.036391551979703195
0.06495650444564427 -0.037287840830025974
0.07113569499986394 -0.038116025075840894
0.07757321737514639 -0.038877130614007736
0.08426519384872727 -0.03957199400462593
0.09120759342420814 -0.04020158596387896
0.09839623425967753 -0.04076733417707387
0.10582678618669683 -0.04127141359956738
0.11349477331863145 -0.04171697573204039
0.12139557674675777 -0.0421082939951345
0.12952443732252045 -0.04245080979961028
0.1378764585242665 -0.042751072576960175
0.14644660940672616 -0.043016576171396155
0.15522972763146647 -0.04325550283203138
0.16422052257649067 -0.043476393847442535
0.17341357852311146 -0.04368777198763888
0.18280335791817703 -0.04389774485953452
0.19238420470968637 -0.04411361972712185
0.20215034775378343 -0.04434155919609254
0.2120959042910774 -0.044586303536148494
0.2222148834901989 -0.04485097964574172
0.23250119005645137 -0.04513700926926225
0.2429486279033891 -0.04544412070960426
0.2535509038851079 -0.04577045967458778
0.26430163158700104 -0.04611278680596798
0.27519433517269654 -0.046466742568004475
0.28622245328485874 -0.04682715511148537
0.29737934299750524 -0.04718836390863695
0.30865828381745486 -0.047544531603638945
0.320052481732506 -0.04788991865062039
0.33155507330389 -0.04821909970241861
0.3431591298005543 -0.04852710695287184
0.35485766137276875 -0.048809493141536736
0.36664362126255073 -0.04906231500801528
0.3785099100483679 -0.04928204588859837
0.3904493799215649 -0.049465433152495374
0.4024548389919357 -0.04960932163297512
0.41451905561984914 -0.04971046761593443
0.42663476277231926 -0.04976536898745299
0.43879466240039156 -0.04977013571159121
0.4509914298352198 -0.04972042103436731
0.46321771820016633 -0.049611428028343195
0.475466162836291 -0.04943799882736133
0.4877293857385438 -0.04919478581220486
0.4999999999999999 -0.04887649583177146
0.512270614261456 -0.04847819102748407
0.5245338371637088 -0.047995623660471914
0.5367822817998334 -0.047425578091228174
0.54900857016478 -0.04676619112865127
0.5612053375996082 -0.046017222541554444
0.5733652372276805 -0.04518025057931523
0.5854809443801506 -0.04425877262775082
0.5975451610080642 -0.04325819818339499
0.6095506200784349 -0.04218572956045834
0.6214900899516319 -0.04105013444558871
0.6333563787374491 -0.03986142284463972
0.645142338627231 -0.03863044841061032
0.6568408701994456 -0.03736845998225621
0.6684449266961098 -0.036086632923826016
0.6799475182674938 -0.03479561124875146
0.691341716182545 -0.033505090452818666
0.7026206570024947 -0.03222346760567826
0.713777546715141 -0.030957579879411567
0.7248056648273034 -0.029712545817564946
0.7356983684129987 -0.028491715871150073
0.746449096114892 -0.027296730711998594
0.7570513720966108 -0.026127678239474282
0.7674988099435485 -0.024983333624892818
0.7777851165098009 -0.023861461678898337
0.7879040957089227 -0.02275915761971835
0.7978496522462164 -0.021673201129029235
0.8076157952903136 -0.020600399389349034
0.8171966420818224 -0.01953789741243063
0.8265864214768883 -0.018483438055293195
0.8357794774235092 -0.017435559233993494
0.8447702723685334 -0.016393721477786925
0.8535533905932737 -0.015358364599357946
0.8621235414757333 -0.014330897409360577
0.8704755626774794 -0.013313628675433273
0.8786044232532422 -0.012309650630739888
0.8865052266813687 -0.011322688122451244
0.894173213813303 -0.0103569269436196
0.9016037657403225 -0.00941683413094609
0.9087924065757916 -0.008506981264113967
0.9157348061512727 -0.007631879376086673
0.9224267826248536 -0.006795831325003662
0.928864305000136 -0.006002804734488605
0.9350434955543556 -0.0052563261904673125
0.9409606321741775 -0.004559395530017631
0.9466121505977576 -0.003914417920795605
0.9519946465617215 -0.0033231510548108498
0.9571048778517655 -0.002786665112409684
0.9619397662556433 -0.002305314046375961
0.9664963994173694 -0.0018787179798402918
0.9707720325915102 -0.0015057578548013958
0.9747640902965183 -0.0011845846545959235
0.9784701678661044 -0.0009126463245684533
0.98188803289772 -0.0006867357566866881
0.985015626597272 -0.0005030627886498151
0.9878510650192642 -0.00035735208724330645
0.9903926402016152 -0.0002449671200113081
0.9926388211944706 -0.00016105832968377944
0.9945882549823906 -0.00010073133458905909
0.9962397672993549 -5.9228743361207844e-05
0.9975923633360985 -3.2117256840884265e-05
0.998645228339345 -1.547037197167929e-05
0.9993977281025862 -6.0363861203001105e-06
0.9998494093481021 -1.3816346540890487e-06
1.0 0.0
