1.0 0.0
0.9998494093481021 2.820147540961558e-05
0.9993977281025862 0.00011289707176483568
0.998645228339345 0.0002543541259152344
0.9975923633360985 0.00045299863582198727
0.9962397672993549 0.0007093893069108634
0.9945882549823906 0.0010241874430782383
0.9926388211944706 0.0013981276875871785
0.9903926402016152 0.0018319944971568931
0.9878510650192642 0.002326608255954923
0.985015626597272 0.0028828232085054764
0.98188803289772 0.0035015371284135843
0.9784701678661044 0.004183710147286564
0.9747640902965183 0.004930387798860065
0.9707720325915102 0.005742721444824455
0.9664963994173694 0.006621978155837764
0.9619397662556433 0.00756953205196465
0.9571048778517655 0.008586830169385336
0.9519946465617215 0.009675328082792665
0.9466121505977576 0.010836393600546026
0.9409606321741775 0.01207118055918017
0.9350434955543556 0.013380478674746846
0.928864305000136 0.014764549107030452
0.9224267826248536 0.016222958404284952
0.9157348061512727 0.0177544254195384
0.9087924065757916 0.019356696326724553
0.9016037657403225 0.0210264618606856
0.894173213813303 0.02275932837092745
0.8865052266813687 0.02454985039835895
0.8786044232532422 0.026391627597976034
0.8704755626774794 0.028277463403486986
0.8621235414757333 0.030199577402726333
0.8535533905932737 0.03214985852278406
0.8447702723685334 0.03412014232350343
0.8357794774235092 0.03610249337637837
0.8265864214768883 0.0380894731207556
0.8171966420818224 0.040074374815738736
0.8076157952903136 0.04205141012546194
0.7978496522462164 0.044015836185341425
0.7879040957089227 0.04596401724402571
0.7777851165098009 0.04789342060490247
0.7674988099435485 0.04980255200746363
0.7570513720966108 0.0516908402259411
0.746449096114892 0.053558484046891196
0.7356983684129987 0.05540627659372028
0.7248056648273034 0.05723542205618609
0.713777546715141 0.059047358322192295
0.7026206570024947 0.06084359606008854
0.691341716182545 0.06262558089093745
0.6799475182674938 0.06439458096594985
0.6684449266961098 0.06615159811824471
0.6568408701994456 0.06789729736042419
0.645142338627231 0.06963194732477197
0.6333563787374491 0.07135536360817595
0.6214900899516319 0.07306684800393952
0.6095506200784349 0.07476511916904255
0.5975451610080642 0.07644823406215165
0.5854809443801506 0.07811350398388812
0.5733652372276805 0.07975741361755413
0.5612053375996082 0.08137555541353907
0.54900857016478 0.08296259432360621
0.5367822817998334 0.08451227872882874
0.5245338371637088 0.08601751206623064
0.512270614261456 0.08747049604200179
0.4999999999999999 0.08886295059971107
0.4877293857385438 0.09018640844295508
0.475466162836291 0.09143257358815281
0.46321771820016633 0.0925937250167151
0.4509914298352198 0.09366313896663396
0.43879466240039156 0.09463549769512
0.42663476277231926 0.09550724947443912
0.41451905561984914 0.09627688474443348
0.4024548389919357 0.09694509702159283
0.3904493799215649 0.09751480428091229
0.3785099100483679 0.09799101663395576
0.36664362126255073 0.09838054842675706
0.35485766137276875 0.09869158629299009
0.3431591298005543 0.09893313795526666
0.33155507330389 0.09911439834414985
0.320052481732506 0.09924407865064362
0.30865828381745486 0.09932974920549004
0.29737934299750524 0.09937724788052556
0.28622245328485874 0.09939020174720799
0.27519433517269654 0.09936970118867379
0.26430163158700104 0.09931415319952953
0.2535509038851079 0.09921932530145366
0.2429486279033891 0.09907857476234087
0.23250119005645137 0.0988832412400057
0.2222148834901989 0.09862316622627616
0.2120959042910774 0.0982872912632982
0.20215034775378343 0.097864280071175
0.19238420470968637 0.09734310826816492
0.18280335791817703 0.0967135685605095
0.17341357852311146 0.09596664883601612
0.16422052257649067 0.09509475466023982
0.15522972763146647 0.094091764900754
0.14644660940672616 0.09295292787781011
0.1378764585242665 0.09167462363710918
0.12952443732252045 0.09025403372636763
0.12139557674675777 0.08868877148026029
0.11349477331863145 0.08697653189787184
0.10582678618669683 0.08511481987897163
0.09839623425967753 0.08310080864879177
0.09120759342420814 0.08093136710182972
0.08426519384872727 0.0786032766452941
0.07757321737514639 0.07611363659971043
0.07113569499986394 0.07346043441134277
0.06495650444564427 0.0706432351610274
0.059039367825822475 0.06766392642318655
0.05338784940224234 0.06452744150576431
0.048005353438278275 0.06124237810197028
0.042895122148234655 0.05782143139327398
0.038060233744356575 0.05428157089539615
0.03350360058263052 0.0506439082711473
0.029227967408489597 0.04693322761046032
0.025235909703481607 0.04317717829613854
0.021529832133895532 0.03940516103575832
0.018111967102280024 0.03564696717738465
0.014984373402728013 0.031931257256974835
0.012148934980735715 0.028283984316545274
0.009607359798384785 0.024726878848991305
0.007361178805529334 0.021276113933373655
0.005411745017609493 0.01794126073173534
0.0037602327006450165 0.014724626440574687
0.0024076366639015356 0.01162104032994962
0.0013547716606548965 0.008618120747441468
0.0006022718974137975 0.0056970196044776305
0.00015059065189787502 0.00283360395771866
0.0 0.0
0.00015059065189787502 -0.0024053650169580513
0.0006022718974137975 -0.004795319506443222
0.0013547716606548965 -0.007154979873308376
0.0024076366639015356 -0.009470482053873134
0.0037602327006450165 -0.011729408088786497
0.005411745017609493 -0.013921120046713236
0.007361178805529334 -0.01603698177293413
0.009607359798384785 -0.01807045749616296
0.012148934980735715 -0.02001708566745148
0.014984373402728013 -0.02187433578401814
0.018111967102280024 -0.02364136462254041
0.021529832133895532 -0.025318695582241563
0.025235909703481607 -0.026907850141673417
0.029227967408489597 -0.02841096334711006
0.03350360058263052 -0.02983041555050584
0.038060233744356575 -0.031168510288272028
0.042895122148234655 -0.03242722343922682
0.048005353438278275 -0.033608042019344295
0.05338784940224234 -0.034711902726913664
0.059039367825822475 -0.03573923132984769
0.06495650444564427 -0.03669007493795649
0.07113569499986394 -0.03756431088204149
0.07757321737514639 -0.03836190902583022
0.08426519384872727 -0.03908321944763992
0.09120759342420814 -0.03972925496344997
0.09839623425967753 -0.04030193813906009
0.10582678618669683 -0.04080428525414934
0.11349477331863145 -0.04124050491253353
0.12139557674675777 -0.04161599621416839
0.12952443732252045 -0.041937240019121656
0.1378764585242665 -0.04221158612433236
0.14644660940672616 -0.04244694836089496
0.15522972763146647 -0.04265142792608127
0.16422052257649067 -0.04283289198164287
0.17341357852311146 -0.042998539097583964
0.18280335791817703 -0.04315448509603733
0.19238420470968637 -0.04330540206383168
0.20215034775378343 -0.04345423979624223
0.2120959042910774 -0.04360205297846264
0.2222148834901989 -0.04374794948310172
0.23250119005645137 -0.04388916590721209
0.2429486279033891 -0.04402126665110144
0.2535509038851079 -0.04413845326397242
0.26430163158700104 -0.04423396224065357
0.27519433517269654 -0.04430052265612558
0.28622245328485874 -0.044330840531083236
0.29737934299750524 -0.044318074999317045
0.30865828381745486 -0.04425627233768871
0.320052481732506 -0.04414072762579997
0.33155507330389 -0.04396824989985581
0.3431591298005543 -0.043737314627610754
0.35485766137276875 -0.043448096477468126
0.36664362126255073 -0.04310238490772113
0.3785099100483679 -0.04270339425617234
0.3904493799215649 -0.0422554880020368
0.4024548389919357 -0.041763843044756416
0.41451905561984914 -0.04123408370563813
0.42663476277231926 -0.04067191642115074
0.43879466240039156 -0.0400827947032409
0.4509914298352198 -0.039471640065947305
0.46321771820016633 -0.038842638646891435
0.475466162836291 -0.03819912575250825
0.4877293857385438 -0.03754356221828951
0.4999999999999999 -0.03687759805360102
0.512270614261456 -0.03620221108329281
0.5245338371637088 -0.03551790188175586
0.5367822817998334 -0.03482492176404331
0.54900857016478 -0.03412350831920029
0.5612053375996082 -0.03341410309999243
0.5733652372276805 -0.032697528557678664
0.5854809443801506 -0.0319751058562645
0.5975451610080642 -0.031248701361002534
0.6095506200784349 -0.030520696775747504
0.6214900899516319 -0.0297938854263978
0.6333563787374491 -0.029071304357752233
0.645142338627231 -0.028356018078680472
0.6568408701994456 -0.027650874409493317
0.6684449266961098 -0.02695825556178728
0.6799475182674938 -0.026279848106048297
0.691341716182545 -0.025616453847850627
0.7026206570024947 -0.024967860028768937
0.713777546715141 -0.024332782057929676
0.7248056648273034 -0.02370888566731765
0.7356983684129987 -0.023092888559827756
0.746449096114892 -0.02248073490663316
0.7570513720966108 -0.02186783004604711
0.7674988099435485 -0.0212493179548433
0.7777851165098009 -0.020620380893456403
0.7879040957089227 -0.01997653929806328
0.7978496522462164 -0.019313930559183713
0.8076157952903136 -0.018629547667152323
0.8171966420818224 -0.01792142254089763
0.8265864214768883 -0.017188743783174924
0.8357794774235092 -0.016431904134729353
0.8447702723685334 -0.01565247850985277
0.8535533905932737 -0.014853138681536985
0.8621235414757333 -0.01403751500555781
0.8704755626774794 -0.013210018693127502
0.8786044232532422 -0.012375639857031447
0.8865052266813687 -0.01153973680810286
0.894173213813303 -0.010707830953919533
0.9016037657403225 -0.009885419365358175
0.9087924065757916 -0.009077813946034624
0.9157348061512727 -0.008290012545819814
0.9224267826248536 -0.007526603705781546
0.928864305000136 -0.006791703390616918
0.9350434955543556 -0.00608891937895645
0.9409606321741775 -0.005421337174177939
0.9466121505977576 -0.004791520489861493
0.9519946465617215 -0.004201519557153754
0.9571048778517655 -0.0036528815848252453
0.9619397662556433 -0.0031466594690485804
0.9664963994173694 -0.0026834170220379175
0.9707720325915102 -0.002263231254504162
0.9747640902965183 -0.0018856942956619583
0.9784701678661044 -0.0015499190925777962
0.98188803289772 -0.0012545538918141738
0.985015626597272 -0.0009978105542781186
0.9878510650192642 -0.0007775109741114142
0.9903926402016152 -0.0005911543511477181
0.9926388211944706 -0.00043600598086701456
0.9945882549823906 -0.0003092058216171596
0.9962397672993549 -0.0002078926616788023
0.9975923633360985 -0.00012933753072811747
0.998645228339345 -7.107834666830487e-05
0.9993977281025862 -3.1046867633268054e-05
0.9998494093481021 -7.678957202472826e-06
1.0 0.0
