1.0 0.0
0.9998494093481021 1.9131233333199052e-05
0.9993977281025862 7.660809138359196e-05
0.998645228339345 0.00017267964629947926
0.9975923633360985 0.0003077602297282428
0.9962397672993549 0.00048243005691634723
0.9945882549823906 0.000697439290666621
0.9926388211944706 0.0009537178131077659
0.9903926402016152 0.001252392465777928
0.9878510650192642 0.0015948124043596418
0.985015626597272 0.0019825816030703174
0.98188803289772 0.0024175956359181495
0.9784701678661044 0.0029020779256894737
0.9747640902965183 0.003438608987620082
0.9707720325915102 0.004030141097060233
0.9664963994173694 0.004679990524633452
0.9619397662556433 0.005391800168890316
0.9571048778517655 0.006169467123103564
0.9519946465617215 0.007017032360408201
0.9466121505977576 0.007938533104653355
0.9409606321741775 0.008937822258713767
0.9350434955543556 0.010018363095506673
0.928864305000136 0.01118301085238989
0.9224267826248536 0.012433795493612359
0.9157348061512727 0.013771721368189258
0.9087924065757916 0.015196599549956195
0.9016037657403225 0.016706927202010835
0.894173213813303 0.01829982541844906
0.8865052266813687 0.019971042881665926
0.8786044232532422 0.021715027695110575
0.8704755626774794 0.02352506437780642
0.8621235414757333 0.025393467765116015
0.8535533905932737 0.027311820978498828
0.8447702723685334 0.02927124117652848
0.8357794774235092 0.031262654840228055
0.8265864214768883 0.03327706408427448
0.8171966420818224 0.03530578694855773
0.8076157952903136 0.037340657652919634
0.7978496522462164 0.03937417706179715
0.7879040957089227 0.04139960863918034
0.7777851165098009 0.04341102042722073
0.7674988099435485 0.04540327848046543
0.7570513720966108 0.047372001201248605
0.746449096114892 0.049313486723808884
0.7356983684129987 0.0512246266139417
0.7248056648273034 0.053102818604550996
0.713777546715141 0.054945888992642786
0.7026206570024947 0.056752031985785406
0.691341716182545 0.05851976916546699
0.6799475182674938 0.06024792789101326
0.6684449266961098 0.06193563349400869
0.6568408701994456 0.06358230706335452
0.645142338627231 0.06518765893970194
0.6333563787374491 0.06675166800145144
0.6214900899516319 0.06827453850086178
0.6095506200784349 0.06975662944150685
0.5975451610080642 0.07119835590665219
0.5854809443801506 0.07260006680423119
0.5733652372276805 0.0739619085230941
0.5612053375996082 0.07528368829220157
0.54900857016478 0.0765647539401296
0.5367822817998334 0.07780390773719327
0.5245338371637088 0.07899937074019718
0.512270614261456 0.08014881047941678
0.4999999999999999 0.08124943913901095
0.4877293857385438 0.08229818207016482
0.475466162836291 0.08329190826079125
0.46321771820016633 0.08422770615319733
0.4509914298352198 0.08510318091311879
0.43879466240039156 0.08591674384007625
0.42663476277231926 0.08666786186051419
0.41451905561984914 0.08735723551318889
0.4024548389919357 0.08798687775551503
0.3904493799215649 0.08856007316093303
0.3785099100483679 0.08908120713843935
0.36664362126255073 0.08955546684188773
0.35485766137276875 0.08998842833267046
0.3431591298005543 0.09038555703158031
0.33155507330389 0.09075165922088797
0.320052481732506 0.0910903301118499
0.30865828381745486 0.09140344778643382
0.29737934299750524 0.09169076151740728
0.28622245328485874 0.09194961736842949
0.27519433517269654 0.09217485385768334
0.26430163158700104 0.09235888659448782
0.2535509038851079 0.0924919843503473
0.2429486279033891 0.0925627215073014
0.23250119005645137 0.09255857492228932
0.2222148834901989 0.09246661865914503
0.2120959042910774 0.0922742593168047
0.20215034775378343 0.0919699490504207
0.19238420470968637 0.09154381361028449
0.18280335791817703 0.09098813902570928
0.17341357852311146 0.09029767255233952
0.16422052257649067 0.08946971021322787
0.15522972763146647 0.08850396321955824
0.14644660940672616 0.08740221690043934
0.1378764585242665 0.0861678164405752
0.12952443732252045 0.08480503165047133
0.12139557674675777 0.08331836630622956
0.11349477331863145 0.08171188481796562
0.10582678618669683 0.07998862919384163
0.09839623425967753 0.07815019220050017
0.09120759342420814 0.07619649873087898
0.08426519384872727 0.07412582781621083
0.07757321737514639 0.07193508419708917
0.07113569499986394 0.06962030307976227
0.06495650444564427 0.06717734707218387
0.059039367825822475 0.06460273275567373
0.05338784940224234 0.06189450811196458
0.048005353438278275 0.059053092853094825
0.042895122148234655 0.05608199272190125
0.038060233744356575 0.05298830641382443
0.03350360058263052 0.04978295947222007
0.029227967408489597 0.04648062209359255
0.025235909703481607 0.043099295318708916
0.021529832133895532 0.03965958013042216
0.018111967102280024 0.036183673779655603
0.014984373402728013 0.03269416442442186
0.012148934980735715 0.029212716321612223
0.009607359798384785 0.02575875125619251
0.007361178805529334 0.022348236203236487
0.005411745017609493 0.018992681793879976
0.0037602327006450165 0.015698441288137802
0.0024076366639015356 0.012466376614809
0.0013547716606548965 0.009291928570232996
0.0006022718974137975 0.006165595028924243
0.00015059065189787502 0.0030737869401009726
0.0 0.0
0.00015059065189787502 -0.0020959743333980106
0.0006022718974137975 -0.004177748087419441
0.0013547716606548965 -0.006231726920176428
0.0024076366639015356 -0.008245487474030457
0.0037602327006450165 -0.010208262252818075
0.005411745017609493 -0.01211131223748785
0.007361178805529334 -0.013948163253492043
0.009607359798384785 -0.01571469228672279
0.012148934980735715 -0.017409061130039427
0.014984373402728013 -0.019031506076728183
0.018111967102280024 -0.020584002996409532
0.021529832133895532 -0.022069836223547155
0.025235909703481607 -0.02349310656625507
0.029227967408489597 -0.024858217881275606
0.03350360058263052 -0.02616938274825407
0.038060233744356575 -0.027430185736402213
0.042895122148234655 -0.02864323775446835
0.048005353438278275 -0.029809947404994094
0.05338784940224234 -0.030930425719577395
0.059039367825822475 -0.03200352987999993
0.06495650444564427 -0.03302704037262739
0.07113569499986394 -0.033997955352056936
0.07757321737514639 -0.034912876637406866
0.08426519384872727 -0.03576845445940186
0.09120759342420814 -0.036561853385003486
0.09839623425967753 -0.037291200128294365
0.10582678618669683 -0.037955975335517866
0.11349477331863145 -0.03855731578692238
0.12139557674675777 -0.03909820043091375
0.12952443732252045 -0.03958350269259393
0.1378764585242665 -0.040019901853429955
0.14644660940672616 -0.04041565715354097
0.15522972763146647 -0.040780258759865906
0.16422052257649067 -0.041123979044482666
0.17341357852311146 -0.04145735500245414
0.18280335791817703 -0.04179063754422045
0.19238420470968637 -0.04213324546723947
0.20215034775378343 -0.042493261023953205
0.2120959042910774 -0.04287700028041351
0.2222148834901989 -0.043288685255575485
0.23250119005645137 -0.04373023669851914
0.2429486279033891 -0.044201197003942254
0.2535509038851079 -0.0446987829791974
0.26430163158700104 -0.04521805877409646
0.27519433517269654 -0.045752211033854844
0.28622245328485874 -0.046292901887654274
0.29737934299750524 -0.04683067122270892
0.30865828381745486 -0.04735535808957461
0.320052481732506 -0.04785651208171289
0.33155507330389 -0.0483237689433783
0.3431591298005543 -0.04874717008670044
0.35485766137276875 -0.04911741257182152
0.36664362126255073 -0.04942602373616281
0.3785099100483679 -0.04966546231026604
0.3904493799215649 -0.04982915480373321
0.4024548389919357 -0.04991148154348114
0.41451905561984914 -0.04990773049684232
0.42663476277231926 -0.04981403859937242
0.43879466240039156 -0.04962733963105303
0.4509914298352198 -0.04934533486606748
0.46321771820016633 -0.04896649809010828
0.475466162836291 -0.048490120640608515
0.4877293857385438 -0.04791639551127442
0.4999999999999999 -0.04724653297024589
0.512270614261456 -0.04648289426693166
0.5245338371637088 -0.04562912547332965
0.5367822817998334 -0.04469027081975682
0.54900857016478 -0.043672844363479596
0.5612053375996082 -0.0425848405840951
0.5733652372276805 -0.041435668423425276
0.5854809443801506 -0.04023599906028231
0.5975451610080642 -0.03899752482920155
0.6095506200784349 -0.03773263451807444
0.6214900899516319 -0.03645401809615103
0.6333563787374491 -0.03517422100378878
0.645142338627231 -0.03390517380798983
0.6568408701994456 -0.03265772674167461
0.6684449266961098 -0.031441220018759736
0.6799475182674938 -0.030263119676525115
0.691341716182545 -0.029128745089209554
0.7026206570024947 -0.02804110848873345
0.713777546715141 -0.027000879281118714
0.7248056648273034 -0.026006477274864475
0.7356983684129987 -0.025054289852256263
0.746449096114892 -0.02413899936228542
0.7570513720966108 -0.023253999308071472
0.7674988099435485 -0.022391871860949417
0.7777851165098009 -0.02154489532797767
0.7879040957089227 -0.020705548712492042
0.7978496522462164 -0.019866981512589088
0.8076157952903136 -0.019023420263035377
0.8171966420818224 -0.018170488710676207
0.8265864214768883 -0.01730542543007791
0.8357794774235092 -0.016427190530053617
0.8447702723685334 -0.01553646121145045
0.8535533905932737 -0.014635523653939492
0.8621235414757333 -0.013728075437177124
0.8704755626774794 -0.012818957953174307
0.8786044232532422 -0.011913841704671396
0.8865052266813687 -0.011018888843550229
0.894173213813303 -0.010140416797039769
0.9016037657403225 -0.0092845845389302
0.9087924065757916 -0.008457119312009796
0.9157348061512727 -0.007663096825324073
0.9224267826248536 -0.006906782624108489
0.928864305000136 -0.00619153696079152
0.9350434955543556 -0.005519780545745079
0.9409606321741775 -0.004893014413037386
0.9466121505977576 -0.0043118840780789055
0.9519946465617215 -0.0037762763431250968
0.9571048778517655 -0.0032854365442127804
0.9619397662556433 -0.0028380946275657105
0.9664963994173694 -0.002432589990606325
0.9707720325915102 -0.0020669872451064913
0.9747640902965183 -0.0017391776420524027
0.9784701678661044 -0.0014469635219634804
0.98188803289772 -0.0011881255352373275
0.985015626597272 -0.0009604742892855803
0.9878510650192642 -0.0007618893769968212
0.9903926402016152 -0.0005903493672927143
0.9926388211944706 -0.00044395632314923325
0.9945882549823906 -0.0003209578608385611
0.9962397672993549 -0.0002197688375456342
0.9975923633360985 -0.00013899364496831288
0.998645228339345 -7.744898969055178e-05
0.9993977281025862 -3.418613032301137e-05
0.9998494093481021 -8.51094588920707e-06
1.0 0.0
