1.0 0.0
0.9998494093481021 2.599745766384631e-05
0.9993977281025862 0.00010409205338647708
0.998645228339345 0.00023457867897079166
0.9975923633360985 0.0004179110415240541
0.9962397672993549 0.0006546499682096123
0.9945882549823906 0.0009454003188052604
0.9926388211944706 0.001290744333519325
0.9903926402016152 0.0016911796033519512
0.9878510650192642 0.0021470691372902713
0.985015626597272 0.002658609296571732
0.98188803289772 0.0032258188801728514
0.9784701678661044 0.0038485496889514295
0.9747640902965183 0.004526515844483989
0.9707720325915102 0.005259336387083125
0.9664963994173694 0.006046583589828634
0.9619397662556433 0.006887828289572045
0.9571048778517655 0.00778267352638055
0.9519946465617215 0.008730768937421559
0.9466121505977576 0.009731800563193952
0.9409606321741775 0.010785453752537434
0.9350434955543556 0.011891350349772426
0.928864305000136 0.013048964897181818
0.9224267826248536 0.014257527755118878
0.9157348061512727 0.015515925430483536
0.9087924065757916 0.016822609695141034
0.9016037657403225 0.018175527074754935
0.894173213813303 0.019572078949714345
0.8865052266813687 0.02100911994464358
0.8786044232532422 0.02248299874960993
0.8704755626774794 0.02398964139180183
0.8621235414757333 0.02552467271483475
0.8535533905932737 0.027083567901623348
0.8447702723685334 0.028661822741505805
0.8357794774235092 0.030255129353168833
0.8265864214768883 0.03185954346278734
0.8171966420818224 0.03347163017412453
0.8076157952903136 0.035088577357588815
0.7978496522462164 0.036708269072359766
0.7879040957089227 0.03832931543300831
0.7777851165098009 0.039951039567411424
0.7674988099435485 0.04157342628481807
0.7570513720966108 0.043197040311961206
0.746449096114892 0.04482292408114004
0.7356983684129987 0.04645248582539227
0.7248056648273034 0.04808738808090591
0.713777546715141 0.0497294447270828
0.7026206570024947 0.05138053169412692
0.691341716182545 0.05304251286142648
0.6799475182674938 0.054717178972547166
0.6684449266961098 0.05640619414682848
0.6568408701994456 0.058111042274267416
0.645142338627231 0.05983296463251556
0.6333563787374491 0.06157288069183763
0.6214900899516319 0.06333128630394094
0.6095506200784349 0.06510812711614551
0.5975451610080642 0.06690264972166148
0.5854809443801506 0.06871323819104751
0.5733652372276805 0.07053724856329073
0.5612053375996082 0.07237085791030572
0.54900857016478 0.07420894708206952
0.5367822817998334 0.07604503668304616
0.5245338371637088 0.07787129392336767
0.512270614261456 0.07967862368829173
0.4999999999999999 0.08145685071706754
0.4877293857385438 0.08319499169252785
0.475466162836291 0.084881607065271
0.46321771820016633 0.08650521348625868
0.4509914298352198 0.08805472978686565
0.43879466240039156 0.08951992348003919
0.42663476277231926 0.09089182157185191
0.41451905561984914 0.09216304963888923
0.4024548389919357 0.09332806689266838
0.3904493799215649 0.0943832721987416
0.3785099100483679 0.09532696624848311
0.36664362126255073 0.09615916745185957
0.35485766137276875 0.09688129250862085
0.3431591298005543 0.09749572572863335
0.33155507330389 0.09800531266875957
0.320052481732506 0.09841282228582972
0.30865828381745486 0.09872042655361513
0.29737934299750524 0.0989292466838736
0.28622245328485874 0.09903901048900686
0.27519433517269654 0.09904785626752008
0.26430163158700104 0.09895230560071065
0.2535509038851079 0.0987474117609709
0.2429486279033891 0.09842707351438071
0.23250119005645137 0.09798448760572753
0.2222148834901989 0.09741269882052687
0.2120959042910774 0.09670519575734177
0.20215034775378343 0.09585649453651966
0.19238420470968637 0.09486265239325956
0.18280335791817703 0.09372165868500018
0.17341357852311146 0.09243366192891027
0.16422052257649067 0.09100100714467863
0.15522972763146647 0.08942807658078397
0.14644660940672616 0.08772094704646181
0.1378764585242665 0.08588689655142022
0.12952443732252045 0.08393380975951904
0.12139557674675777 0.08186954407714311
0.11349477331863145 0.07970132459600526
0.10582678618669683 0.07743523571355808
0.09839623425967753 0.0750758698355336
0.09120759342420814 0.07262617959672081
0.08426519384872727 0.0700875606657647
0.07757321737514639 0.06746016915891231
0.07113569499986394 0.06474345313811038
0.06495650444564427 0.06193685400235811
0.059039367825822475 0.05904061318966782
0.05338784940224234 0.05605660464634644
0.048005353438278275 0.05298910569084717
0.042895122148234655 0.049845419264768244
0.038060233744356575 0.04663626942739485
0.03350360058263052 0.04337590880407927
0.029227967408489597 0.040081900248031745
0.025235909703481607 0.03677456324169715
0.021529832133895532 0.03347610605812722
0.018111967102280024 0.030209494648369067
0.014984373402728013 0.026997135812753127
0.012148934980735715 0.023859472883842908
0.009607359798384785 0.02081360481375012
0.007361178805529334 0.017872042827415495
0.005411745017609493 0.0150417121214327
0.0037602327006450165 0.012323289803542603
0.0024076366639015356 0.009710945615675932
0.0013547716606548965 0.007192520982728736
0.0006022718974137975 0.004750147207791256
0.00015059065189787502 0.0023612681926322636
0.0 0.0
0.00015059065189787502 -0.002002734537907723
0.0006022718974137975 -0.003987053240474752
0.0013547716606548965 -0.005935234917270238
0.0024076366639015356 -0.007830907316825073
0.0037602327006450165 -0.009659623565967742
0.005411745017609493 -0.011409328728651172
0.007361178805529334 -0.013070692152356893
0.009607359798384785 -0.014637290597311593
0.012148934980735715 -0.016105637399294555
0.014984373402728013 -0.017475063327956345
0.018111967102280024 -0.018747464588415575
0.021529832133895532 -0.019926941845961284
0.025235909703481607 -0.02101936061241649
0.029227967408489597 -0.02203186735573856
0.03350360058263052 -0.02297239701248623
0.038060233744356575 -0.023849206140704512
0.042895122148234655 -0.024670461911533412
0.048005353438278275 -0.025443910869358616
0.05338784940224234 -0.02617664343586915
0.059039367825822475 -0.0268749611678441
0.06495650444564427 -0.027544344553748476
0.07113569499986394 -0.02818951041809098
0.07757321737514639 -0.028814540515957575
0.08426519384872727 -0.02942305725798107
0.09120759342420814 -0.030018419165830465
0.09839623425967753 -0.030603907882046963
0.10582678618669683 -0.03118288038948504
0.11349477331863145 -0.031758864355795086
0.12139557674675777 -0.032335580819720405
0.12952443732252045 -0.03291688621396244
0.1378764585242665 -0.03350663427957472
0.14644660940672616 -0.034108467003425055
0.15522972763146647 -0.03472555153116494
0.16422052257649067 -0.03536028636160644
0.17341357852311146 -0.03601400442506413
0.18280335791817703 -0.03668670247345376
0.19238420470968637 -0.03737682536181332
0.20215034775378343 -0.03808113031020611
0.2120959042910774 -0.038794650365317
0.2222148834901989 -0.03951076850890022
0.23250119005645137 -0.04022140483593494
0.2429486279033891 -0.04091730971870909
0.2535509038851079 -0.04158844670761205
0.26430163158700104 -0.04222444090125284
0.27519433517269654 -0.04281506236556538
0.28622245328485874 -0.04335071045975861
0.29737934299750524 -0.0438228639989217
0.30865828381745486 -0.044224464173876314
0.320052481732506 -0.04455020193227463
0.33155507330389 -0.04479668873160402
0.3431591298005543 -0.04496249862170799
0.35485766137276875 -0.04504807975369241
0.36664362126255073 -0.04505554379428133
0.3785099100483679 -0.044988351472095504
0.3904493799215649 -0.044850920765078156
0.4024548389919357 -0.044648190346937275
0.41451905561984914 -0.04438517431846408
0.42663476277231926 -0.044066544660079074
0.43879466240039156 -0.04369627521463434
0.4509914298352198 -0.04327737556495444
0.46321771820016633 -0.04281173537176415
0.475466162836291 -0.04230009024984961
0.4877293857385438 -0.041742109893402386
0.4999999999999999 -0.04113659879930294
0.512270614261456 -0.040481790460261936
0.5245338371637088 -0.03977570810902402
0.5367822817998334 -0.03901655964169525
0.54900857016478 -0.038203131678764476
0.5612053375996082 -0.03733514803963548
0.5733652372276805 -0.03641356115464133
0.5854809443801506 -0.03544075080990274
0.5975451610080642 -0.03442061258482322
0.6095506200784349 -0.03335852769551236
0.6214900899516319 -0.03226121588591911
0.6333563787374491 -0.03113648266039402
0.645142338627231 -0.029992880712880345
0.6568408701994456 -0.02883931217331951
0.6684449266961098 -0.02768460272370922
0.6799475182674938 -0.026537080409282293
0.691341716182545 -0.025404190995542406
0.7026206570024947 -0.02429217814945674
0.713777546715141 -0.023205850923215633
0.7248056648273034 -0.022148453543970145
0.7356983684129987 -0.021121644043721553
0.746449096114892 -0.020125579545745887
0.7570513720966108 -0.019159097800146976
0.7674988099435485 -0.018219977505119566
0.7777851165098009 -0.01730525460972275
0.7879040957089227 -0.01641156854530418
0.7978496522462164 -0.015535511355238762
0.8076157952903136 -0.014673953959308424
0.8171966420818224 -0.01382432707763847
0.8265864214768883 -0.01298483926066626
0.8357794774235092 -0.012154620513227065
0.8447702723685334 -0.011333786578037968
0.8535533905932737 -0.010523425457620895
0.8621235414757333 -0.009725513646153433
0.8704755626774794 -0.008942774346534564
0.8786044232532422 -0.008178493324714514
0.8865052266813687 -0.00743630981791333
0.894173213813303 -0.00672000004218104
0.9016037657403225 -0.006033269468168755
0.9087924065757916 -0.005379567413956284
0.9157348061512727 -0.004761933999933583
0.9224267826248536 -0.004182885538584428
0.928864305000136 -0.0036443404179768617
0.9350434955543556 -0.003147583875651186
0.9409606321741775 -0.002693267072947905
0.9466121505977576 -0.0022814337936909075
0.9519946465617215 -0.0019115670157636752
0.9571048778517655 -0.0015826475316130892
0.9619397662556433 -0.0012932176075638232
0.9664963994173694 -0.0010414441674443608
0.9707720325915102 -0.0008251778997527509
0.9747640902965183 -0.0006420067305023552
0.9784701678661044 -0.0004893039965702838
0.98188803289772 -0.0003642731587012173
0.985015626597272 -0.00026399183792763845
0.9878510650192642 -0.00018545825590865833
0.9903926402016152 -0.00012564280968179587
0.9926388211944706 -8.154660021893363e-05
0.9945882549823906 -5.026741764032587e-05
0.9962397672993549 -2.907216730727586e-05
0.9975923633360985 -1.5473224028929718e-05
0.998645228339345 -7.30494156603979e-06
0.9993977281025862 -2.7957013065655915e-06
0.9998494093481021 -6.3057977849001e-07
1.0 0.0
