1.0 0.0
0.9998494093481021 2.7063863871330384e-05
0.9993977281025862 0.00010833167980929229
0.998645228339345 0.00024402598036021083
0.9975923633360985 0.00043449818965081156
0.9962397672993549 0.0006802027905520294
0.9945882549823906 0.000981667350485357
0.9926388211944706 0.0013394634288190293
0.9903926402016152 0.0017541833362650255
0.9878510650192642 0.002226426841530024
0.985015626597272 0.002756800317827945
0.98188803289772 0.0033459286938141387
0.9784701678661044 0.003994478204570838
0.9747640902965183 0.0047031856596093215
0.9707720325915102 0.005472888091390003
0.9664963994173694 0.006304545513859239
0.9619397662556433 0.007199249319033124
0.9571048778517655 0.008158209671280392
0.9519946465617215 0.00918271709378667
0.9466121505977576 0.010274076117409877
0.9409606321741775 0.011433512098792023
0.9350434955543556 0.012662055744535668
0.928864305000136 0.013960413088340682
0.9224267826248536 0.015328831248836916
0.9157348061512727 0.016766971892560108
0.9087924065757916 0.018273804684621996
0.9016037657403225 0.01984753201045706
0.894173213813303 0.02148555393297697
0.8865052266813687 0.02318447890611529
0.8786044232532422 0.024940181535134758
0.8704755626774794 0.026747904100324044
0.8621235414757333 0.02860239414685466
0.8535533905932737 0.030498066694453766
0.8447702723685334 0.03242917698381464
0.8357794774235092 0.03438998848823676
0.8265864214768883 0.036374921360039794
0.8171966420818224 0.03837866855186297
0.8076157952903136 0.04039627036593725
0.7978496522462164 0.04242314278119389
0.7879040957089227 0.044455060094677354
0.7777851165098009 0.04648809761386176
0.7674988099435485 0.04851854475563334
0.7570513720966108 0.0505428024015658
0.746449096114892 0.05255728029782777
0.7356983684129987 0.05455831040947515
0.7248056648273034 0.05654209038362135
0.713777546715141 0.05850466780024996
0.7026206570024947 0.060441971053062954
0.691341716182545 0.062349887033382866
0.6799475182674938 0.06422437992684138
0.6684449266961098 0.06606164005503785
0.6568408701994456 0.06785824744505818
0.645142338627231 0.06961133221834861
0.6333563787374491 0.07131871330888101
0.6214900899516319 0.07297899857673464
0.6095506200784349 0.07459163295937686
0.5975451610080642 0.07615688654167878
0.5854809443801506 0.07767578076415745
0.5733652372276805 0.07914995771771682
0.5612053375996082 0.08058150381431843
0.54900857016478 0.08197274431853938
0.5367822817998334 0.08332602862596203
0.5245338371637088 0.08464352732066936
0.512270614261456 0.08592706072501274
0.4999999999999999 0.08717797494283352
0.4877293857385438 0.08839707565071347
0.475466162836291 0.0895846227240592
0.46321771820016633 0.09074038100334071
0.4509914298352198 0.09186371502606393
0.43879466240039156 0.09295370929353798
0.42663476277231926 0.09400929142885754
0.41451905561984914 0.09502933403369786
0.4024548389919357 0.09601271250451193
0.3904493799215649 0.0969583005269907
0.3785099100483679 0.09786489208319137
0.36664362126255073 0.09873104790135315
0.35485766137276875 0.0995548744081509
0.3431591298005543 0.10033375328596537
0.33155507330389 0.10106404851528347
0.320052481732506 0.10174082418858763
0.30865828381745486 0.10235760951141286
0.29737934299750524 0.10290624666520264
0.28622245328485874 0.10337685239673626
0.27519433517269654 0.10375791556012003
0.26430163158700104 0.10403654104523737
0.2535509038851079 0.10419883664216609
0.2429486279033891 0.10423042476628046
0.23250119005645137 0.10411704711563755
0.2222148834901989 0.10384521876894044
0.2120959042910774 0.10340288032087597
0.20215034775378343 0.10277999344461429
0.19238420470968637 0.10196902738457098
0.18280335791817703 0.10096529140791108
0.17341357852311146 0.09976708071241798
0.16422052257649067 0.09837561969407531
0.15522972763146647 0.0967948053523744
0.14644660940672616 0.09503077315692329
0.1378764585242665 0.0930913259567977
0.12952443732252045 0.09098528155913539
0.12139557674675777 0.08872180474294984
0.11349477331863145 0.08630979343102294
0.10582678618669683 0.08375738580453175
0.09839623425967753 0.08107164526113361
0.09120759342420814 0.07825846393306678
0.08426519384872727 0.07532270430446944
0.07757321737514639 0.07226857416268173
0.07113569499986394 0.06910020494960428
0.06495650444564427 0.06582237999784118
0.059039367825822475 0.06244133954827718
0.05338784940224234 0.05896557597300302
0.048005353438278275 0.05540652688966675
0.042895122148234655 0.05177907679069181
0.038060233744356575 0.04810178956820338
0.03350360058263052 0.04439681419976476
0.029227967408489597 0.0406894323773321
0.025235909703481607 0.03700724783349443
0.021529832133895532 0.03337904986643857
0.018111967102280024 0.029833415147419013
0.014984373402728013 0.02639713937808825
0.012148934980735715 0.023093611098178004
0.009607359798384785 0.01994125181196087
0.007361178805529334 0.016952148236567724
0.005411745017609493 0.014130993399086139
0.0037602327006450165 0.01147443399860053
0.0024076366639015356 0.00897089330909315
0.0013547716606548965 0.006600904151657148
0.0006022718974137975 0.0043379479599801735
0.00015059065189787502 0.0021497569298179232
0.0 0.0
0.00015059065189787502 -0.0018289850616020926
0.0006022718974137975 -0.003643889908189873
0.0013547716606548965 -0.005431284118521694
0.0024076366639015356 -0.007178991868190722
0.0037602327006450165 -0.008876610112384145
0.005411745017609493 -0.010515904986524518
0.007361178805529334 -0.012091060347686611
0.009607359798384785 -0.013598763393315089
0.012148934980735715 -0.01503812440206666
0.014984373402728013 -0.016410439927166925
0.018111967102280024 -0.017718820304583074
0.021529832133895532 -0.018967712242871214
0.025235909703481607 -0.020162354788889607
0.029227967408489597 -0.02130821154507275
0.03350360058263052 -0.0224104233060255
0.038060233744356575 -0.02347332319299428
0.042895122148234655 -0.024500051061778265
0.048005353438278275 -0.025492295857332505
0.05338784940224234 -0.026450184316729106
0.059039367825822475 -0.027372322778708987
0.06495650444564427 -0.028255986746164325
0.07113569499986394 -0.029097441206993598
0.07757321737514639 -0.029892364451304387
0.08426519384872727 -0.030636340023822588
0.09120759342420814 -0.03132537614459832
0.09839623425967753 -0.03195640982445239
0.10582678618669683 -0.03252775414842375
0.11349477331863145 -0.03303945169126668
0.12139557674675777 -0.03349350439899806
0.12952443732252045 -0.033893959928402946
0.1378764585242665 -0.034246845611818164
0.14644660940672616 -0.03455995301938906
0.15522972763146647 -0.03484248759099559
0.16422052257649067 -0.03510460809972324
0.17341357852311146 -0.03535688898444133
0.18280335791817703 -0.03560974421356402
0.19238420470968637 -0.03587285389577249
0.20215034775378343 -0.03615463416749149
0.2120959042910774 -0.036461787055616424
0.2222148834901989 -0.03679896038574796
0.23250119005645137 -0.03716853895300799
0.2429486279033891 -0.03757057784117921
0.2535509038851079 -0.03800287782466617
0.26430163158700104 -0.03846119211395876
0.27519433517269654 -0.03893954416999827
0.28622245328485874 -0.03943062866917552
0.29737934299750524 -0.03992626253151446
0.30865828381745486 -0.040417850595374234
0.320052481732506 -0.04089683115256131
0.33155507330389 -0.0413550700153578
0.3431591298005543 -0.04178517770136542
0.35485766137276875 -0.04218073212077849
0.36664362126255073 -0.04253639811174273
0.3785099100483679 -0.04284794448639892
0.3904493799215649 -0.043112168103970165
0.4024548389919357 -0.043326742118128474
0.41451905561984914 -0.04349001131946916
0.42663476277231926 -0.043600760955065
0.43879466240039156 -0.043657986317138235
0.4509914298352198 -0.04366068874718774
0.46321771820016633 -0.04360771972589799
0.475466162836291 -0.04349768884395094
0.4877293857385438 -0.04332894426852089
0.4999999999999999 -0.04309962653490079
0.512270614261456 -0.04280778884293061
0.5245338371637088 -0.04245157023624171
0.5367822817998334 -0.04202940270857463
0.54900857016478 -0.04154022988727427
0.5612053375996082 -0.04098371377227442
0.5733652372276805 -0.04036040713047734
0.5854809443801506 -0.039671872416794145
0.5975451610080642 -0.03892073317296725
0.6095506200784349 -0.03811065023975382
0.6214900899516319 -0.03724622219016156
0.6333563787374491 -0.03633281648038717
0.645142338627231 -0.03537634425953841
0.6568408701994456 -0.03438299698841912
0.6684449266961098 -0.033358966525232944
0.6799475182674938 -0.03231017184099198
0.691341716182545 -0.031242014918915335
0.7026206570024947 -0.03015918575624842
0.713777546715141 -0.02906553199479021
0.7248056648273034 -0.027964002985093123
0.7356983684129987 -0.0268566715790233
0.746449096114892 -0.025744830246954203
0.7570513720966108 -0.024629151833641463
0.7674988099435485 -0.02350989995266905
0.7777851165098009 -0.0223871701229579
0.7879040957089227 -0.02126114058086805
0.7978496522462164 -0.020132311401022934
0.8076157952903136 -0.019001712097384712
0.8171966420818224 -0.017871061057006647
0.8265864214768883 -0.01674286464404805
0.8357794774235092 -0.015620449157236514
0.8447702723685334 -0.014507924525592183
0.8535533905932737 -0.013410084169214916
0.8621235414757333 -0.01233225035578408
0.8704755626774794 -0.011280078251027812
0.8786044232532422 -0.010259334408793985
0.8865052266813687 -0.009275666525067557
0.894173213813303 -0.008334380884914906
0.9016037657403225 -0.00744024219278364
0.9087924065757916 -0.006597307642383201
0.9157348061512727 -0.005808803486541402
0.9224267826248536 -0.005077048393333967
0.928864305000136 -0.0044034239148515045
0.9350434955543556 -0.003788388811722539
0.9409606321741775 -0.003231531068517995
0.9466121505977576 -0.002731649411403575
0.9519946465617215 -0.0022868551041296255
0.9571048778517655 -0.0018946847476999673
0.9619397662556433 -0.0015522156386477792
0.9664963994173694 -0.0012561767643651557
0.9707720325915102 -0.001003050488485567
0.9747640902965183 -0.0007891621357627507
0.9784701678661044 -0.0006107567601968371
0.98188803289772 -0.00046406414233182144
0.985015626597272 -0.0003453543392262583
0.9878510650192642 -0.0002509868042938999
0.9903926402016152 -0.0001774561843609007
0.9926388211944706 -0.00012143744473418776
0.9945882549823906 -7.983209128092477e-05
0.9962397672993549 -4.9816118607163335e-05
0.9975923633360985 -2.8889104668169108e-05
0.998645228339345 -1.4922780814150558e-05
0.9993977281025862 -6.2065918929135875e-06
0.9998494093481021 -1.4873368339568787e-06
1.0 0.0
