1.0 0.0
0.9998494093481021 1.7107489735949155e-05
0.9993977281025862 6.879426591213374e-05
0.998645228339345 0.0001561380288180881
0.9975923633360985 0.0002808855143786429
0.9962397672993549 0.0004453827464813557
0.9945882549823906 0.0006524856147341763
0.9926388211944706 0.0009054577397271398
0.9903926402016152 0.0012078629604702473
0.9878510650192642 0.0015634592401502433
0.985015626597272 0.0019760994207764855
0.98188803289772 0.002449642260231553
0.9784701678661044 0.0029878748395064233
0.9747640902965183 0.0035944450677321
0.9707720325915102 0.00427280098064462
0.9664963994173694 0.005026132130388079
0.9619397662556433 0.005857307829300633
0.9571048778517655 0.006768807455691418
0.9519946465617215 0.007762639444653724
0.9466121505977576 0.00884024782845294
0.9409606321741775 0.010002407997045158
0.9350434955543556 0.011249116368029288
0.928864305000136 0.012579481486322932
0.9224267826248536 0.013991626316389437
0.9157348061512727 0.015482612793333416
0.9087924065757916 0.017048399808905563
0.9016037657403225 0.018683844601269227
0.894173213813303 0.020382755022615176
0.8865052266813687 0.022137996561355552
0.8786044232532422 0.023941653620905487
0.8704755626774794 0.02578523983760351
0.8621235414757333 0.027659947649603927
0.8535533905932737 0.029556923405410596
0.8447702723685334 0.03146755147161324
0.8357794774235092 0.03338372940505553
0.8265864214768883 0.0352981164875966
0.8171966420818224 0.0372043397996817
0.8076157952903136 0.039097145368717535
0.7978496522462164 0.040972486439450395
0.7879040957089227 0.042827546113195204
0.7777851165098009 0.04466069694581012
0.7674988099435485 0.04647140501493281
0.7570513720966108 0.048260089943929003
0.746449096114892 0.050027954987861764
0.7356983684129987 0.05177680228653446
0.7248056648273034 0.053508847701473475
0.713777546715141 0.05522654740832708
0.7026206570024947 0.05693244493238407
0.691341716182545 0.05862904306445093
0.6799475182674938 0.06031870064714675
0.6684449266961098 0.06200355017809192
0.6568408701994456 0.06368542909348057
0.645142338627231 0.06536581591601742
0.6333563787374491 0.06704576244468843
0.6214900899516319 0.06872581488605238
0.6095506200784349 0.07040592010380203
0.5975451610080642 0.07208531760317134
0.5854809443801506 0.07376242289761922
0.5733652372276805 0.0754347128378805
0.5612053375996082 0.07709862759071721
0.54900857016478 0.07874950655949185
0.5367822817998334 0.08038157610105061
0.5245338371637088 0.08198800508585473
0.512270614261456 0.08356104011020143
0.4999999999999999 0.0850922257332195
0.4877293857385438 0.08657270699610435
0.475466162836291 0.0879936024520964
0.46321771820016633 0.08934642693363766
0.4509914298352198 0.09062353532861207
0.43879466240039156 0.09181855272107038
0.42663476277231926 0.09292675322040614
0.41451905561984914 0.09394535025611794
0.4024548389919357 0.09487366532235221
0.3904493799215649 0.0957131500052518
0.3785099100483679 0.09646724711070852
0.36664362126255073 0.09714108996009607
0.35485766137276875 0.09774105327265896
0.3431591298005543 0.09827418315290401
0.33155507330389 0.09874754613987145
0.320052481732506 0.09916754672951707
0.30865828381745486 0.09953926815699247
0.29737934299750524 0.09986589178069531
0.28622245328485874 0.10014824584927569
0.27519433517269654 0.10038452495862335
0.26430163158700104 0.10057020781991188
0.2535509038851079 0.10069818421342645
0.2429486279033891 0.1007590836991908
0.23250119005645137 0.10074178051088165
0.2222148834901989 0.10063403283897718
0.2120959042910774 0.10042320204914792
0.20215034775378343 0.10009698962132399
0.19238420470968637 0.09964412762928723
0.18280335791817703 0.09905496275734199
0.17341357852311146 0.0983218839157407
0.16422052257649067 0.09743955862144715
0.15522972763146647 0.09640496207900279
0.14644660940672616 0.09521720354593627
0.1378764585242665 0.09387717507833199
0.12952443732252045 0.09238706606294511
0.12139557674675777 0.09074980115490192
0.11349477331863145 0.08896846781641891
0.10582678618669683 0.08704580157824207
0.09839623425967753 0.08498379204840069
0.09120759342420814 0.08278346089490259
0.08426519384872727 0.08044484553524422
0.07757321737514639 0.0779672006816723
0.07113569499986394 0.07534940627894379
0.06495650444564427 0.0725905470557688
0.059039367825822475 0.0696906082554407
0.05338784940224234 0.06665121628331552
0.048005353438278275 0.063476343761398
0.042895122148234655 0.06017289696658638
0.038060233744356575 0.05675111027408172
0.03350360058263052 0.05322468666771034
0.029227967408489597 0.0496106444789457
0.025235909703481607 0.045928856460996995
0.021529832133895532 0.04220129575920016
0.018111967102280024 0.03845103166543869
0.014984373402728013 0.03470104354770269
0.012148934980735715 0.03097294153356413
0.009607359798384785 0.02728569535099074
0.007361178805529334 0.02365447679351169
0.005411745017609493 0.02008971597522855
0.0037602327006450165 0.016596457134705263
0.0024076366639015356 0.013174077348335393
0.0013547716606548965 0.00981640299571916
0.0006022718974137975 0.006512226646967488
0.00015059065189787502 0.0032461940476108428
0.0 0.0
0.00015059065189787502 -0.0019520958042095965
0.0006022718974137975 -0.0038855475496208406
0.0013547716606548965 -0.00578248367564684
0.0024076366639015356 -0.007626532788803746
0.0037602327006450165 -0.009403464689722195
0.005411745017609493 -0.011101708761281335
0.007361178805529334 -0.012712721915488044
0.009607359798384785 -0.01423118828004579
0.012148934980735715 -0.01565504386048266
0.014984373402728013 -0.01698533074961254
0.018111967102280024 -0.01822589626758856
0.021529832133895532 -0.019382961942454455
0.025235909703481607 -0.020464594823777788
0.029227967408489597 -0.021480118751509427
0.03350360058263052 -0.022439505556672002
0.038060233744356575 -0.023352785638065938
0.042895122148234655 -0.024229514045211543
0.048005353438278275 -0.02507832241494689
0.05338784940224234 -0.025906579351913414
0.059039367825822475 -0.026720172748072285
0.06495650444564427 -0.0275234178312643
0.07113569499986394 -0.028319085179210068
0.07757321737514639 -0.029108534268287526
0.08426519384872727 -0.029891930996532656
0.09120759342420814 -0.030668522542756115
0.09839623425967753 -0.03143694023823857
0.10582678618669683 -0.03219550097293526
0.11349477331863145 -0.032942479963155434
0.12139557674675777 -0.03367633219902826
0.12952443732252045 -0.03439584611745611
0.1378764585242665 -0.035100220422029794
0.14644660940672616 -0.035789062821561364
0.15522972763146647 -0.036462317081435346
0.16422052257649067 -0.0371201315073634
0.17341357852311146 -0.03776268722996565
0.18280335791817703 -0.03839000799148346
0.19238420470968637 -0.039001774290990096
0.20215034775378343 -0.0395971636594276
0.2120959042910774 -0.04017473565241203
0.2222148834901989 -0.040732375199190055
0.23250119005645137 -0.0412673017223553
0.2429486279033891 -0.041776144551720525
0.2535509038851079 -0.04225507826317534
0.26430163158700104 -0.04270000534382934
0.27519433517269654 -0.04310676861976045
0.28622245328485874 -0.04347137266514559
0.29737934299750524 -0.04379019226049218
0.30865828381745486 -0.04406014700778785
0.320052481732506 -0.044278824359104796
0.33155507330389 -0.04444453828890507
0.3431591298005543 -0.04455631717904334
0.35485766137276875 -0.04461382159426845
0.36664362126255073 -0.04461719982907225
0.3785099100483679 -0.044566895709650466
0.3904493799215649 -0.044463428489234534
0.4024548389919357 -0.04430716824004973
0.41451905561984914 -0.04409813153865464
0.42663476277231926 -0.0438358212782819
0.43879466240039156 -0.04351913115373519
0.4509914298352198 -0.04314633000014598
0.46321771820016633 -0.04271513417240766
0.475466162836291 -0.042222868132284284
0.4877293857385438 -0.0416667050756018
0.4999999999999999 -0.04104397153517551
0.512270614261456 -0.04035249316275915
0.5245338371637088 -0.039590953959360096
0.5367822817998334 -0.038759238570699225
0.54900857016478 -0.03785872717990713
0.5612053375996082 -0.036892515074940346
0.5733652372276805 -0.03586553397389975
0.5854809443801506 -0.03478455926893102
0.5975451610080642 -0.03365809592455059
0.6095506200784349 -0.032496145129227286
0.6214900899516319 -0.03130986316663306
0.6333563787374491 -0.030111132557442345
0.645142338627231 -0.028912072601112317
0.6568408701994456 -0.027724521425215618
0.6684449266961098 -0.02655952411320945
0.6799475182674938 -0.025426861231118956
0.691341716182545 -0.024334649142118227
0.7026206570024947 -0.023289038144801304
0.713777546715141 -0.022294027157282802
0.7248056648273034 -0.021351405015636378
0.7356983684129987 -0.020460819185046674
0.746449096114892 -0.019619963557370106
0.7570513720966108 -0.018824868763043606
0.7674988099435485 -0.018070271700365837
0.7777851165098009 -0.017350036277775375
0.7879040957089227 -0.016657594986839018
0.7978496522462164 -0.015986380980530675
0.8076157952903136 -0.015330222718756975
0.8171966420818224 -0.014683677663194061
0.8265864214768883 -0.014042287498031198
0.8357794774235092 -0.013402744349786349
0.8447702723685334 -0.012762964846653301
0.8535533905932737 -0.012122075964209538
0.8621235414757333 -0.011480322874070664
0.8704755626774794 -0.010838913974478951
0.8786044232532422 -0.0101998216082545
0.8865052266813687 -0.00956555849995773
0.894173213813303 -0.008938949677031469
0.9016037657403225 -0.008322917745951343
0.9087924065757916 -0.00772029617629693
0.9157348061512727 -0.007133681104380713
0.9224267826248536 -0.00656532755976371
0.928864305000136 -0.006017091406692154
0.9350434955543556 -0.005490414105106516
0.9409606321741775 -0.004986343983234596
0.9466121505977576 -0.004505585321620909
0.9519946465617215 -0.004048565300579162
0.9571048778517655 -0.0036155087579302736
0.9619397662556433 -0.0032065116241562644
0.9664963994173694 -0.0028216056355588708
0.9707720325915102 -0.002460809195158603
0.9747640902965183 -0.0021241617476718652
0.9784701678661044 -0.0018117414557030542
0.98188803289772 -0.0015236680438585786
0.985015626597272 -0.0012600942149171503
0.9878510650192642 -0.0010211899188559029
0.9903926402016152 -0.0008071239425455908
0.9926388211944706 -0.0006180468428094873
0.9945882549823906 -0.0004540782990706961
0.9962397672993549 -0.00031530069697970943
0.9975923633360985 -0.00020175938024122108
0.998645228339345 -0.00011346873140189019
0.9993977281025862 -5.042224223105332e-05
0.9998494093481021 -1.2604138907271524e-05
1.0 0.0
