1.0 0.0
0.9998494093481021 1.9454100185414595e-05
0.9993977281025862 7.80591890641162e-05
0.998645228339345 0.00017653394659260068
0.9975923633360985 0.0003160448683896579
0.9962397672993549 0.0004981625916547405
0.9945882549823906 0.0007248068169278623
0.9926388211944706 0.0009981847979762038
0.9903926402016152 0.0013207284061236423
0.9878510650192642 0.0016950340506679596
0.985015626597272 0.0021238083506506483
0.98188803289772 0.0026098206028300564
0.9784701678661044 0.003155861049963666
0.9747640902965183 0.0037647020366504643
0.9707720325915102 0.004439057659676479
0.9664963994173694 0.005181536743881909
0.9619397662556433 0.005994584087132405
0.9571048778517655 0.006880405990010066
0.9519946465617215 0.007840878059415525
0.9466121505977576 0.008877435963793673
0.9409606321741775 0.00999095292279446
0.9350434955543556 0.0111816108575955
0.928864305000136 0.012448774895315595
0.9224267826248536 0.01379088291129679
0.9157348061512727 0.015205362670744968
0.9087924065757916 0.016688588670732564
0.9016037657403225 0.018235888903660704
0.894173213813303 0.01984160854531348
0.8865052266813687 0.021499233258114897
0.8786044232532422 0.02320156977900607
0.8704755626774794 0.024940976222206687
0.8621235414757333 0.02670962961419043
0.8535533905932737 0.028499814129206588
0.8447702723685334 0.030304210778507288
0.8357794774235092 0.03211616827105478
0.8265864214768883 0.03392993558617182
0.8171966420818224 0.03574083946379233
0.8076157952903136 0.0375453943113943
0.7978496522462164 0.039341337552975496
0.7879040957089227 0.041127589666843156
0.7777851165098009 0.04290414445153078
0.7674988099435485 0.0446719007798648
0.7570513720966108 0.046432451659539006
0.746449096114892 0.048187849343356216
0.7356983684129987 0.04994036622699121
0.7248056648273034 0.05169227025104513
0.713777546715141 0.0534456306256787
0.7026206570024947 0.05520216527027011
0.691341716182545 0.05696313593205909
0.6799475182674938 0.058729291157984614
0.6684449266961098 0.06050085182809686
0.6568408701994456 0.06227752946647424
0.645142338627231 0.06405856456287622
0.6333563787374491 0.0658427710228657
0.6214900899516319 0.0676285737477682
0.6095506200784349 0.06941402911389893
0.5975451610080642 0.07119682241908237
0.5854809443801506 0.07297424163662673
0.5733652372276805 0.07474313236397592
0.5612053375996082 0.07649984391547303
0.54900857016478 0.07824018035585723
0.5367822817998334 0.07995937229347973
0.5245338371637088 0.08165208504061154
0.512270614261456 0.08331247615391443
0.4999999999999999 0.0849343105347411
0.4877293857385438 0.08651113463092756
0.475466162836291 0.08803650352909619
0.46321771820016633 0.08950424673728531
0.4509914298352198 0.09090875120557021
0.43879466240039156 0.09224523457767399
0.42663476277231926 0.09350997864374745
0.41451905561984914 0.09470049307711252
0.4024548389919357 0.09581558307443688
0.3904493799215649 0.09685530140001755
0.3785099100483679 0.09782077509804707
0.36664362126255073 0.09871390896344684
0.35485766137276875 0.09953698064563309
0.3431591298005543 0.1002921547094447
0.33155507330389 0.10098095374702835
0.320052481732506 0.10160373246407228
0.30865828381745486 0.10215920452067885
0.29737934299750524 0.10264407110870738
0.28622245328485874 0.10305279455305487
0.27519433517269654 0.1033775498853609
0.26430163158700104 0.10360837309836879
0.2535509038851079 0.10373350783152892
0.2429486279033891 0.10373993408793834
0.23250119005645137 0.10361404496454056
0.2222148834901989 0.10334242205052434
0.2120959042910774 0.10291264872787835
0.20215034775378343 0.10231409439349545
0.19238420470968637 0.10153860245493991
0.18280335791817703 0.10058102110926052
0.17341357852311146 0.09943952805909365
0.16422052257649067 0.09811571751131948
0.15522972763146647 0.09661443856602792
0.14644660940672616 0.0949433965573446
0.1378764585242665 0.09311255093979139
0.12952443732252045 0.09113336278063662
0.12139557674675777 0.08901795985727246
0.11349477331863145 0.08677829618712211
0.10582678618669683 0.08442538450313104
0.09839623425967753 0.08196867436524076
0.09120759342420814 0.07941563562498026
0.08426519384872727 0.07677158790214152
0.07757321737514639 0.07403979327779182
0.07113569499986394 0.0712218037184703
0.06495650444564427 0.06831802925797908
0.059039367825822475 0.06532847015360556
0.05338784940224234 0.06225353838198325
0.048005353438278275 0.059094882799331866
0.042895122148234655 0.05585612929868988
0.038060233744356575 0.05254345284027665
0.03350360058263052 0.049165911984533996
0.029227967408489597 0.045735497396795805
0.025235909703481607 0.042266871888918256
0.021529832133895532 0.038776808545750524
0.018111967102280024 0.035283362659082246
0.014984373402728013 0.03180483979516361
0.012148934980735715 0.028358643785130744
0.009607359798384785 0.024960102625515443
0.007361178805529334 0.02162137573670465
0.005411745017609493 0.018350542081781523
0.0037602327006450165 0.015150955504225433
0.0024076366639015356 0.01202093237516553
0.0013547716606548965 0.008953809098068692
0.0006022718974137975 0.0059383756560507876
0.00015059065189787502 0.00295965903871507
0.0 0.0
0.00015059065189787502 -0.002559510518138481
0.0006022718974137975 -0.005100273029706253
0.0013547716606548965 -0.007604247884037987
0.0024076366639015356 -0.010054768968817704
0.0037602327006450165 -0.012437125595588345
0.005411745017609493 -0.014739026837212977
0.007361178805529334 -0.01695092232289481
0.009607359798384785 -0.01906616352226719
0.012148934980735715 -0.021081000599491376
0.014984373402728013 -0.022994421171649158
0.018111967102280024 -0.024807847931765957
0.021529832133895532 -0.026524721315869346
0.025235909703481607 -0.02815000053672566
0.029227967408489597 -0.029689620867191593
0.03350360058263052 -0.031149946726504413
0.038060233744356575 -0.03253725881964569
0.042895122148234655 -0.03385730944853321
0.048005353438278275 -0.03511497351671363
0.05338784940224234 -0.036314014237064325
0.059039367825822475 -0.03745697281978373
0.06495650444564427 -0.038545181249854094
0.07113569499986394 -0.03957888747025008
0.07757321737514639 -0.04055747364272413
0.08426519384872727 -0.04147974133583931
0.09120759342420814 -0.04234423301053449
0.09839623425967753 -0.0431495573624783
0.10582678618669683 -0.043894687042586776
0.11349477331863145 -0.04457920088842498
0.12139557674675777 -0.04520344871792781
0.12952443732252045 -0.045768624431930416
0.1378764585242665 -0.046276741967694
0.14644660940672616 -0.04673051777821818
0.15522972763146647 -0.04713317219404144
0.16422052257649067 -0.04748816951036014
0.17341357852311146 -0.047798922293019956
0.18280335791817703 -0.04806848873237973
0.19238420470968637 -0.04829929261494545
0.20215034775378343 -0.048492893574226
0.2120959042910774 -0.04864983089889796
0.2222148834901989 -0.04876955770679065
0.23250119005645137 -0.048850474306912445
0.2429486279033891 -0.04889006076985489
0.2535509038851079 -0.04888509988132914
0.26430163158700104 -0.04883197353990227
0.27519433517269654 -0.048727008989829346
0.28622245328485874 -0.04856684663861918
0.29737934299750524 -0.04834879900450698
0.30865828381745486 -0.04807117076582399
0.320052481732506 -0.04773351290634593
0.33155507330389 -0.04733678930473825
0.3431591298005543 -0.046883441334845656
0.35485766137276875 -0.04637734449678644
0.36664362126255073 -0.0458236600497769
0.3785099100483679 -0.045228593287985674
0.3904493799215649 -0.04459907773961191
0.4024548389919357 -0.04394241051981226
0.41451905561984914 -0.04326586782490683
0.42663476277231926 -0.04257633080935712
0.43879466240039156 -0.04187995075176231
0.4509914298352198 -0.04118187863396271
0.46321771820016633 -0.04048607838546811
0.475466162836291 -0.03979523562234864
0.4877293857385438 -0.03911076540564089
0.4999999999999999 -0.03843291409989198
0.512270614261456 -0.037760942571672694
0.5245338371637088 -0.03709337141110049
0.5367822817998334 -0.0364282641428129
0.54900857016478 -0.03576352189975035
0.5612053375996082 -0.03509716294157255
0.5733652372276805 -0.03442756266898354
0.5854809443801506 -0.03375363416335994
0.5975451610080642 -0.033074935330007466
0.6095506200784349 -0.03239169586258655
0.6214900899516319 -0.031704764808017746
0.6333563787374491 -0.03101548680316632
0.645142338627231 -0.030325521423855674
0.6568408701994456 -0.02963662497887668
0.6684449266961098 -0.02895041708986795
0.6799475182674938 -0.028268155297475235
0.691341716182545 -0.027590539699050516
0.7026206570024947 -0.02691756642390691
0.713777546715141 -0.026248443935408743
0.7248056648273034 -0.02558158020090227
0.7356983684129987 -0.024914642266992696
0.746449096114892 -0.024244683329253496
0.7570513720966108 -0.02356832657815302
0.7674988099435485 -0.022881990444141468
0.7777851165098009 -0.022182136737557263
0.7879040957089227 -0.021465521809753443
0.7978496522462164 -0.020729431304022643
0.8076157952903136 -0.01997188119959923
0.8171966420818224 -0.0191917714054499
0.8265864214768883 -0.018388982736024004
0.8357794774235092 -0.017564413222055073
0.8447702723685334 -0.016719954868914262
0.8535533905932737 -0.015858416686507497
0.8621235414757333 -0.014983403659570663
0.8704755626774794 -0.01409916399332604
0.8786044232532422 -0.01321041827806812
0.8865052266813687 -0.012322184134373568
0.894173213813303 -0.011439608538201997
0.9016037657403225 -0.010567817617537148
0.9087924065757916 -0.009711790590409471
0.9157348061512727 -0.00887626106597763
0.9224267826248536 -0.008065645557077825
0.928864305000136 -0.007283996125412066
0.9350434955543556 -0.006534971901491459
0.9409606321741775 -0.005821822993308489
0.9466121505977576 -0.005147380105033418
0.9519946465617215 -0.004514043990660679
0.9571048778517655 -0.003923770512759209
0.9619397662556433 -0.003378049313627138
0.9664963994173694 -0.002877876621179162
0.9707720325915102 -0.0024237251635489494
0.9747640902965183 -0.0020155162256913026
0.9784701678661044 -0.0016526002691149395
0.98188803289772 -0.0013337530545363295
0.985015626597272 -0.0010571937625434963
0.9878510650192642 -0.0008206302190645599
0.9903926402016152 -0.0006213341319525353
0.9926388211944706 -0.0004562464606111841
0.9945882549823906 -0.00032210997203727674
0.9962397672993549 -0.00021562302183686166
0.9975923633360985 -0.00013360597625352493
0.998645228339345 -7.316976272338695e-05
0.9993977281025862 -3.187503324889825e-05
0.9998494093481021 -7.870482049010562e-06
1.0 0.0
