1.0 0.0
0.9998494093481021 2.9941580784252288e-05
0.9993977281025862 0.00011974066467919263
0.998645228339345 0.00026931277365120165
0.9975923633360985 0.00047849338388546283
0.9962397672993549 0.0007470066446176133
0.9945882549823906 0.0010744295897963442
0.9926388211944706 0.001460158496285569
0.9903926402016152 0.0019033842087690593
0.9878510650192642 0.002403082433995266
0.985015626597272 0.0029580232894983755
0.98188803289772 0.0035668019778643213
0.9784701678661044 0.004227889645528212
0.9747640902965183 0.0049397006323066974
0.9707720325915102 0.005700669796215502
0.9664963994173694 0.006509331747317278
0.9619397662556433 0.007364392908634397
0.9571048778517655 0.008264787495633684
0.9519946465617215 0.009209709790768352
0.9466121505977576 0.010198617370834238
0.9409606321741775 0.011231202980858623
0.9350434955543556 0.012307336197671041
0.928864305000136 0.013426979487985364
0.9224267826248536 0.014590086326114636
0.9157348061512727 0.015796491319436435
0.9087924065757916 0.017045803503693314
0.9016037657403225 0.018337313944767654
0.894173213813303 0.01966992749283794
0.8865052266813687 0.021042126103525675
0.8786044232532422 0.022451967832089508
0.8704755626774794 0.023897121793720236
0.8621235414757333 0.025374935505031473
0.8535533905932737 0.026882527533226237
0.8447702723685334 0.028416895694726052
0.8357794774235092 0.029975029488157504
0.8265864214768883 0.03155401520981524
0.8171966420818224 0.033151123317992054
0.8076157952903136 0.034763869956281196
0.7978496522462164 0.036390047833688724
0.7879040957089227 0.038027725489472516
0.7777851165098009 0.03967521786817774
0.7674988099435485 0.04133103460441217
0.7570513720966108 0.04299381502118648
0.746449096114892 0.044662260235135406
0.7356983684129987 0.046335072738998534
0.7248056648273034 0.04801091237513134
0.713777546715141 0.049688374886998725
0.7026206570024947 0.05136599557235933
0.691341716182545 0.053042276430334157
0.6799475182674938 0.05471573114328593
0.6684449266961098 0.05638493882614247
0.6568408701994456 0.05804859521670817
0.645142338627231 0.05970554925339147
0.6333563787374491 0.06135481399616677
0.6214900899516319 0.06299554358313296
0.6095506200784349 0.06462697214434561
0.5975451610080642 0.06624831587298853
0.5854809443801506 0.06785864517045201
0.5733652372276805 0.06945673922295915
0.5612053375996082 0.07104093979768274
0.54900857016478 0.07260902379682105
0.5367822817998334 0.07415811466176035
0.5245338371637088 0.07568465078389536
0.512270614261456 0.07718442463717909
0.4999999999999999 0.07865269968090416
0.4877293857385438 0.08008440375681854
0.475466162836291 0.08147438853128207
0.46321771820016633 0.08281773548593307
0.4509914298352198 0.08411008108198323
0.43879466240039156 0.08534792801147645
0.42663476277231926 0.08652890674181196
0.41451905561984914 0.08765195243235674
0.4024548389919357 0.08871736698437024
0.3904493799215649 0.08972674431525515
0.3785099100483679 0.09068274836153487
0.36664362126255073 0.09158874688116933
0.35485766137276875 0.09244831862264312
0.3431591298005543 0.09326466545292018
0.33155507330389 0.094039973141423
0.320052481732506 0.09477477333841912
0.30865828381745486 0.09546736376720302
0.29737934299750524 0.09611334304775021
0.28622245328485874 0.09670531062998372
0.27519433517269654 0.0972327712992839
0.26430163158700104 0.0976822684030417
0.2535509038851079 0.09803775157421175
0.2429486279033891 0.09828116489356122
0.23250119005645137 0.09839322194828544
0.2222148834901989 0.09835431696506886
0.2120959042910774 0.09814550783468487
0.20215034775378343 0.09774949880190155
0.19238420470968637 0.09715154880291751
0.18280335791817703 0.0963402362537206
0.17341357852311146 0.09530802225988716
0.16422052257649067 0.09405157084351064
0.15522972763146647 0.09257180542572907
0.14644660940672616 0.09087370359669475
0.1378764585242665 0.08896585502694522
0.12952443732252045 0.08685982805035644
0.12139557674675777 0.08456940696429652
0.11349477331863145 0.08210977279420453
0.10582678618669683 0.07949670403765116
0.09839623425967753 0.07674587027250243
0.09120759342420814 0.07387228073632034
0.08426519384872727 0.07088993301717138
0.07757321737514639 0.06781168542393562
0.07113569499986394 0.06464935249487362
0.06495650444564427 0.06141399881386975
0.059039367825822475 0.058116384254393236
0.05338784940224234 0.05476749620724271
0.048005353438278275 0.051379093115864374
0.042895122148234655 0.04796418000022905
0.038060233744356575 0.044537341131345755
0.03350360058263052 0.04111486736855859
0.029227967408489597 0.037714634857019196
0.025235909703481607 0.03435571607760222
0.021529832133895532 0.0310577313850925
0.018111967102280024 0.027839976577557567
0.014984373402728013 0.024720387047134425
0.012148934980735715 0.021714419185753113
0.009607359798384785 0.018833942896745514
0.007361178805529334 0.016086243860790408
0.005411745017609493 0.013473229963074096
0.0037602327006450165 0.010990923197280218
0.0024076366639015356 0.008629297451540702
0.0013547716606548965 0.006372495634505531
0.0006022718974137975 0.0041994289892674196
0.00015059065189787502 0.002084729912280779
0.0 0.0
0.00015059065189787502 -0.002904653321451241
0.0006022718974137975 -0.005778956662580011
0.0013547716606548965 -0.008593595429381871
0.0024076366639015356 -0.011321273066432038
0.0037602327006450165 -0.013937591575295631
0.005411745017609493 -0.016421786933346363
0.007361178805529334 -0.01875728552933448
0.009607359798384785 -0.02093205882622885
0.012148934980735715 -0.022938765794710526
0.014984373402728013 -0.02477468537787509
0.018111967102280024 -0.026441453476537344
0.021529832133895532 -0.027944629857746303
0.025235909703481607 -0.029293129264995044
0.029227967408489597 -0.03049855728322292
0.03350360058263052 -0.031574494819034765
0.038060233744356575 -0.03253577525373248
0.042895122148234655 -0.03339779550222034
0.048005353438278275 -0.03417589667504074
0.05338784940224234 -0.03488484229982736
0.059039367825822475 -0.035538412772928
0.06495650444564427 -0.03614912464395651
0.07113569499986394 -0.03672807328865236
0.07757321737514639 -0.03728488827917315
0.08426519384872727 -0.03782778301245129
0.09120759342420814 -0.03836367446490093
0.09839623425967753 -0.038898345682771354
0.10582678618669683 -0.039436622959744566
0.11349477331863145 -0.039982541544785206
0.12139557674675777 -0.04053947789874302
0.12952443732252045 -0.04111023252476213
0.1378764585242665 -0.04169705463465432
0.14644660940672616 -0.04230160768572066
0.15522972763146647 -0.042924882400528185
0.16422052257649067 -0.043567070565501444
0.17341357852311146 -0.04422741808240481
0.18280335791817703 -0.044904078952240856
0.19238420470968637 -0.04559399281946964
0.20215034775378343 -0.04629280731929314
0.2120959042910774 -0.04699486288967721
0.2222148834901989 -0.04769325227194806
0.23250119005645137 -0.048379960139334245
0.2429486279033891 -0.049046080797090136
0.2535509038851079 -0.049682104394164546
0.26430163158700104 -0.05027825528258097
0.27519433517269654 -0.050824860704727436
0.28622245328485874 -0.05131272440940544
0.29737934299750524 -0.051733478455464506
0.30865828381745486 -0.05207988751564726
0.320052481732506 -0.052346083383142956
0.33155507330389 -0.05252771283489211
0.3431591298005543 -0.05262198905294446
0.35485766137276875 -0.05262764483129394
0.36664362126255073 -0.052544794087560104
0.3785099100483679 -0.05237471601133117
0.3904493799215649 -0.052119582803679496
0.4024548389919357 -0.05178215678488341
0.41451905561984914 -0.051365485215344946
0.42663476277231926 -0.05087262123222208
0.43879466240039156 -0.050306396818908035
0.4509914298352198 -0.049669268891826504
0.46321771820016633 -0.04896325281702246
0.475466162836291 -0.048189949542807704
0.4877293857385438 -0.04735066376519948
0.4999999999999999 -0.04644660190384079
0.512270614261456 -0.04547913092527236
0.5245338371637088 -0.04445007290095031
0.5367822817998334 -0.043362006185693094
0.54900857016478 -0.04221854261812149
0.5612053375996082 -0.041024551328147675
0.5733652372276805 -0.03978630350442538
0.5854809443801506 -0.038511518517776074
0.5975451610080642 -0.03720929960759107
0.6095506200784349 -0.035889956256660194
0.6214900899516319 -0.03456471965102946
0.6333563787374491 -0.0332453664628801
0.645142338627231 -0.03194377386462198
0.6568408701994456 -0.030671434545356372
0.6684449266961098 -0.029438964080271687
0.6799475182674938 -0.028255634022261868
0.691341716182545 -0.027128962486357985
0.7026206570024947 -0.026064389946358152
0.713777546715141 -0.02506506182745438
0.7248056648273034 -0.02413173179385657
0.7356983684129987 -0.023262791048320568
0.746449096114892 -0.022454420190303314
0.7570513720966108 -0.021700851924525165
0.7674988099435485 -0.020994725808660533
0.7777851165098009 -0.020327510794536752
0.7879040957089227 -0.01968996790797067
0.7978496522462164 -0.01907262419929118
0.8076157952903136 -0.018466230058255578
0.8171966420818224 -0.017862174920083858
0.8265864214768883 -0.01725284093503713
0.8357794774235092 -0.01663187985820021
0.8447702723685334 -0.015994404697843554
0.8535533905932737 -0.01533709398457013
0.8621235414757333 -0.014658212370961904
0.8704755626774794 -0.013957556206330091
0.8786044232532422 -0.013236336434239252
0.8865052266813687 -0.012497013451433166
0.894173213813303 -0.01174309941141029
0.9016037657403225 -0.010978942958418123
0.9087924065757916 -0.010209509759940644
0.9157348061512727 -0.00944016977598551
0.9224267826248536 -0.008676499317883446
0.928864305000136 -0.007924102971423664
0.9350434955543556 -0.0071884577208383505
0.9409606321741775 -0.006474779378345087
0.9466121505977576 -0.005787909876466111
0.9519946465617215 -0.005132223192779273
0.9571048778517655 -0.0045115476215758545
0.9619397662556433 -0.003929102664081332
0.9664963994173694 -0.0033874497865801997
0.9707720325915102 -0.002888457458229221
0.9747640902965183 -0.0024332819796928765
0.9784701678661044 -0.0020223664220195793
0.98188803289772 -0.001655460332725552
0.985015626597272 -0.0013316626233532618
0.9878510650192642 -0.001049489203283982
0.9903926402016152 -0.0008069655273820193
0.9926388211944706 -0.0006017424170795211
0.9945882549823906 -0.00043123149364806456
0.9962397672993549 -0.00029275456333798417
0.9975923633360985 -0.00018369955995115595
0.998645228339345 -0.0001016744035924936
0.9993977281025862 -4.464954953854581e-05
0.9998494093481021 -1.1080184226072427e-05
1.0 0.0
