1.0 0.0
0.9998494093481021 2.4255679516257747e-05
0.9993977281025862 9.695858625427679e-05
0.998645228339345 0.00021792091574279605
0.9975923633360985 0.00038684534609885815
0.9962397672993549 0.0006033497805289897
0.9945882549823906 0.0008670039883348555
0.9926388211944706 0.0011773792210530672
0.9903926402016152 0.0015341110394172513
0.9878510650192642 0.0019369741610698358
0.985015626597272 0.0023859662578726987
0.98188803289772 0.0028813955206303033
0.9784701678661044 0.0034239647629569357
0.9747640902965183 0.004014843182074042
0.9707720325915102 0.004655715948147468
0.9664963994173694 0.005348801814666797
0.9619397662556433 0.006096830093258042
0.9571048778517655 0.006902970653835233
0.9519946465617215 0.0077707139899056785
0.9466121505977576 0.008703702583394587
0.9409606321741775 0.009705519446203624
0.9350434955543556 0.010779444352764673
0.928864305000136 0.011928192415630378
0.9224267826248536 0.013153652816400224
0.9157348061512727 0.014456647279722044
0.9087924065757916 0.015836727982621642
0.9016037657403225 0.017292032898748325
0.894173213813303 0.018819213143036223
0.8865052266813687 0.02041344194697963
0.8786044232532422 0.02206850886469611
0.8704755626774794 0.023776996220475594
0.8621235414757333 0.025530528270690418
0.8535533905932737 0.027320077690553127
0.8447702723685334 0.02913630937961037
0.8357794774235092 0.03096993866391132
0.8265864214768883 0.03281208004624731
0.8171966420818224 0.034654563807958214
0.8076157952903136 0.0364902008742595
0.7978496522462164 0.03831298109718738
0.7879040957089227 0.040118195996471276
0.7777851165098009 0.041902483424722824
0.7674988099435485 0.04366379793605939
0.7570513720966108 0.04540131620617707
0.746449096114892 0.04711529113871557
0.7356983684129987 0.04880687091128443
0.7248056648273034 0.05047789997310334
0.713777546715141 0.05213071792846282
0.7026206570024947 0.05376796956082335
0.691341716182545 0.05539243538835815
0.6799475182674938 0.057006887642094696
0.6684449266961098 0.05861397203706387
0.6568408701994456 0.06021611177024592
0.645142338627231 0.06181542734776367
0.6333563787374491 0.06341366448920215
0.6214900899516319 0.06501212265227323
0.6095506200784349 0.06661157861575549
0.5975451610080642 0.06821220277994283
0.5854809443801506 0.06981346992556858
0.5733652372276805 0.07141407050841524
0.5612053375996082 0.07301183248460616
0.54900857016478 0.07460366650466692
0.5367822817998334 0.07618554852850905
0.5245338371637088 0.07775255312264225
0.512270614261456 0.07929894776599568
0.4999999999999999 0.08081835354186286
0.4877293857385438 0.08230397103171626
0.475466162836291 0.08374886269323419
0.46321771820016633 0.08514627532022893
0.4509914298352198 0.08648997926011996
0.43879466240039156 0.08777459581078147
0.42663476277231926 0.08899588142386425
0.41451905561984914 0.09015093758243166
0.4024548389919357 0.09123831877788001
0.3904493799215649 0.09225801781789773
0.3785099100483679 0.09321131732301242
0.36664362126255073 0.09410050794308228
0.35485766137276875 0.09492848649797922
0.3431591298005543 0.09569825968840914
0.33155507330389 0.09641238994321435
0.320052481732506 0.09707242815327892
0.30865828381745486 0.0976783824822791
0.29737934299750524 0.09822827246027999
0.28622245328485874 0.09871781289227993
0.27519433517269654 0.0991402629497149
0.26430163158700104 0.09948646282547206
0.2535509038851079 0.09974506460979643
0.2429486279033891 0.09990294700157448
0.23250119005645137 0.09994578672008785
0.2222148834901989 0.09985874468006309
0.2120959042910774 0.0996272136639621
0.20215034775378343 0.09923756760776545
0.19238420470968637 0.09867785152165547
0.18280335791817703 0.09793835578151172
0.17341357852311146 0.0970120287637177
0.16422052257649067 0.09589469670185961
0.15522972763146647 0.09458507786820732
0.14644660940672616 0.09308459799556129
0.1378764585242665 0.09139703331033569
0.12952443732252045 0.08952802467413842
0.12139557674675777 0.08748451933040882
0.11349477331863145 0.08527420418776763
0.10582678618669683 0.08290499552371931
0.09839623425967753 0.08038464417000235
0.09120759342420814 0.077720503030048
0.08426519384872727 0.07491948622511203
0.07757321737514639 0.07198822788920162
0.07113569499986394 0.0689334256847463
0.06495650444564427 0.06576233177998655
0.059039367825822475 0.062483334620735374
0.05338784940224234 0.05910656043607528
0.048005353438278275 0.055644415704679526
0.042895122148234655 0.05211199183516724
0.038060233744356575 0.04852726141111363
0.03350360058263052 0.044911011067275304
0.029227967408489597 0.041286478185274395
0.025235909703481607 0.03767868524684343
0.021529832133895532 0.03411349448251847
0.018111967102280024 0.03061643374091985
0.014984373402728013 0.02721136958073871
0.012148934980735715 0.023919122978823888
0.009607359798384785 0.020756134741676053
0.007361178805529334 0.017733290357754266
0.005411745017609493 0.014855007094509723
0.0037602327006450165 0.012118669960544996
0.0024076366639015356 0.009514478911410216
0.0013547716606548965 0.007025739329904819
0.0006022718974137975 0.004629593901709587
0.00015059065189787502 0.0022981594407425806
0.0 0.0
0.00015059065189787502 -0.0018814187285972957
0.0006022718974137975 -0.0037455384881893996
0.0013547716606548965 -0.005575780292363805
0.0024076366639015356 -0.007356960138425914
0.0037602327006450165 -0.00907587732898035
0.005411745017609493 -0.010721780729698977
0.007361178805529334 -0.012286686436990534
0.009607359798384785 -0.013765531049889892
0.012148934980735715 -0.015156156500046265
0.014984373402728013 -0.016459134290749168
0.018111967102280024 -0.01767744812174874
0.021529832133895532 -0.018816063386299393
0.025235909703481607 -0.019881419205496305
0.029227967408489597 -0.02088088298381748
0.03350360058263052 -0.02182220862759986
0.038060233744356575 -0.022713037514866745
0.042895122148234655 -0.02356047624513679
0.048005353438278275 -0.02437077757441064
0.05338784940224234 -0.02514914139876907
0.059039367825822475 -0.02589964198575162
0.06495650444564427 -0.0266252767479732
0.07113569499986394 -0.02732812160512674
0.07757321737514639 -0.02800956922733279
0.08426519384872727 -0.028670619906832454
0.09120759342420814 -0.029312190993296537
0.09839623425967753 -0.02993541004888868
0.10582678618669683 -0.030541859177325378
0.11349477331863145 -0.0311337431432442
0.12139557674675777 -0.031713961470099625
0.12952443732252045 -0.032286074028736275
0.1378764585242665 -0.032854159897624496
0.14644660940672616 -0.03342257960023108
0.15522972763146647 -0.03399566030828744
0.16422052257649067 -0.03457733141305389
0.17341357852311146 -0.035170743319881126
0.18280335791817703 -0.03577790492217257
0.19238420470968637 -0.03639937470791703
0.20215034775378343 -0.0370340368578257
0.2120959042910774 -0.03767898728587774
0.2222148834901989 -0.03832954587066913
0.23250119005645137 -0.0389794008494475
0.2429486279033891 -0.03962088035639774
0.2535509038851079 -0.040245335310688274
0.26430163158700104 -0.04084360821523699
0.27519433517269654 -0.04140655474222968
0.28622245328485874 -0.04192557992403948
0.29737934299750524 -0.042393148788307744
0.30865828381745486 -0.04280323256612856
0.320052481732506 -0.043151656080261815
0.33155507330389 -0.04343631923494825
0.3431591298005543 -0.04365727508937884
0.35485766137276875 -0.04381665802235942
0.36664362126255073 -0.04391846708164221
0.3785099100483679 -0.04396822080627504
0.3904493799215649 -0.04397250969665171
0.4024548389919357 -0.043938480279099947
0.41451905561984914 -0.043873289744126194
0.42663476277231926 -0.04378357203645517
0.43879466240039156 -0.04367495491175027
0.4509914298352198 -0.04355166299384303
0.46321771820016633 -0.04341623467077708
0.475466162836291 -0.04326937138329691
0.4877293857385438 -0.043109927277078595
0.4999999999999999 -0.04293503619803299
0.512270614261456 -0.04274036251572482
0.5245338371637088 -0.04252045311199412
0.5367822817998334 -0.04226916078848325
0.54900857016478 -0.04198010485653202
0.5612053375996082 -0.04164713307299884
0.5733652372276805 -0.04126475042117666
0.5854809443801506 -0.04082848430214993
0.5975451610080642 -0.040335162067516896
0.6095506200784349 -0.039783084875374464
0.6214900899516319 -0.039172090849575424
0.6333563787374491 -0.038503509673208654
0.645142338627231 -0.037780019272123405
0.6568408701994456 -0.03700542244777808
0.6684449266961098 -0.036184366647685665
0.6799475182674938 -0.0353220331496628
0.691341716182545 -0.03442382262877823
0.7026206570024947 -0.033495062437373914
0.713777546715141 -0.032540757226761245
0.7248056648273034 -0.0315653992135722
0.7356983684129987 -0.03057284800794789
0.746449096114892 -0.029566283105829427
0.7570513720966108 -0.02854822554091287
0.7674988099435485 -0.027520619377683683
0.7777851165098009 -0.026484959184703546
0.7879040957089227 -0.0254424466913762
0.7978496522462164 -0.0243941586666897
0.8076157952903136 -0.0233412086530644
0.8171966420818224 -0.022284887363870323
0.8265864214768883 -0.021226769989884688
0.8357794774235092 -0.02016878293587572
0.8447702723685334 -0.019113227145711415
0.8535533905932737 -0.018062759689406526
0.8621235414757333 -0.017020339237663624
0.8704755626774794 -0.0159891440829345
0.8786044232532422 -0.014972473241382945
0.8865052266813687 -0.013973641782537802
0.894173213813303 -0.01299588091628767
0.9016037657403225 -0.012042251680980576
0.9087924065757916 -0.011115578586337386
0.9157348061512727 -0.01021840660554276
0.9224267826248536 -0.009352981847976323
0.928864305000136 -0.008521253433027537
0.9350434955543556 -0.007724891833187668
0.9409606321741775 -0.006965317487852404
0.9466121505977576 -0.0062437329329735934
0.9519946465617215 -0.005561152059365938
0.9571048778517655 -0.004918421309057003
0.9619397662556433 -0.004316229455812921
0.9664963994173694 -0.0037551048352225803
0.9707720325915102 -0.0032354011967207527
0.9747640902965183 -0.002757275447873638
0.9784701678661044 -0.002320662185754638
0.98188803289772 -0.0019252508592542802
0.985015626597272 -0.0015704715622782744
0.9878510650192642 -0.001255494800380846
0.9903926402016152 -0.0009792491796644482
0.9926388211944706 -0.0007404590015782573
0.9945882549823906 -0.0005377014429903986
0.9962397672993549 -0.0003694806301000401
0.9975923633360985 -0.00023431375817863106
0.998645228339345 -0.0001308227233810251
0.9993977281025862 -5.782372086271804e-05
0.9998494093481021 -1.4407051248477344e-05
1.0 0.0
