1.0 0.0
0.9998494093481021 2.870158782402143e-05
0.9993977281025862 0.00011464442454376753
0.998645228339345 0.0002573440224664695
0.9975923633360985 0.00045599809795036656
0.9962397672993549 0.000709497305891323
0.9945882549823906 0.0010164455790066407
0.9926388211944706 0.0013751941331952863
0.9903926402016152 0.001783892773802016
0.9878510650192642 0.0022405608408842645
0.985015626597272 0.002743178074997352
0.98188803289772 0.003289793096613072
0.9784701678661044 0.003878644391411349
0.9747640902965183 0.004508286052239602
0.9707720325915102 0.005177708424323999
0.9664963994173694 0.005886442568248397
0.9619397662556433 0.00663463734234301
0.9571048778517655 0.007423099036217053
0.9519946465617215 0.008253285839442032
0.9466121505977576 0.009127252834273231
0.9409606321741775 0.010047547354303672
0.9350434955543556 0.011017059043285472
0.928864305000136 0.012038833311171152
0.9224267826248536 0.013115860641502844
0.9157348061512727 0.01425085692729767
0.9087924065757916 0.015446051372277992
0.9016037657403225 0.016702998301412617
0.894173213813303 0.018022427455631904
0.8865052266813687 0.019404144149180833
0.8786044232532422 0.02084698635291818
0.8704755626774794 0.022348840769283427
0.8621235414757333 0.02390671480157339
0.8535533905932737 0.025516856531583084
0.8447702723685334 0.027174910907524333
0.8357794774235092 0.02887609771453963
0.8265864214768883 0.030615395815876915
0.8171966420818224 0.032387718701875116
0.8076157952903136 0.034188068468062396
0.7978496522462164 0.03601165868859279
0.7879040957089227 0.037854000837755315
0.7777851165098009 0.03971095342505689
0.7674988099435485 0.041578737297745805
0.7570513720966108 0.04345392410872307
0.746449096114892 0.04533340732173632
0.7356983684129987 0.047214366051021764
0.7248056648273034 0.04909423141411631
0.713777546715141 0.05097066301767872
0.7026206570024947 0.05284153998921987
0.691341716182545 0.05470496706160615
0.6799475182674938 0.05655929216488563
0.6684449266961098 0.05840312837099138
0.6568408701994456 0.060235370423774026
0.645142338627231 0.06205519491322317
0.6333563787374491 0.0638620336921609
0.6214900899516319 0.0656555124466504
0.6095506200784349 0.06743535024692254
0.5975451610080642 0.06920122103029444
0.5854809443801506 0.07095258372178508
0.5733652372276805 0.0726884933771678
0.5612053375996082 0.074407410586201
0.54900857016478 0.0761070296926674
0.5367822817998334 0.07778414759588331
0.5245338371637088 0.07943459362809288
0.512270614261456 0.08105323715316284
0.4999999999999999 0.08263408330062483
0.4877293857385438 0.08417045912559401
0.475466162836291 0.08565528321665765
0.46321771820016633 0.08708140229625999
0.4509914298352198 0.0884419697021521
0.43879466240039156 0.08973083382011232
0.42663476277231926 0.0909429004445578
0.41451905561984914 0.0920744323271837
0.4024548389919357 0.09312325216596717
0.3904493799215649 0.09408882194347887
0.3785099100483679 0.09497218140723035
0.36664362126255073 0.09577574079042021
0.35485766137276875 0.0965029364912755
0.3431591298005543 0.09715777205484745
0.33155507330389 0.09774427905148576
0.320052481732506 0.09826594200909199
0.30865828381745486 0.09872513732937717
0.29737934299750524 0.09912263733434114
0.28622245328485874 0.09945722691079496
0.27519433517269654 0.09972547179486292
0.26430163158700104 0.09992166500165772
0.2535509038851079 0.1000379623386989
0.2429486279033891 0.10006470077700347
0.23250119005645137 0.09999087634027173
0.2222148834901989 0.09980474281551932
0.2120959042910774 0.09949448057642166
0.20215034775378343 0.09904887744829118
0.19238420470968637 0.09845796170837182
0.18280335791817703 0.09771353135243373
0.17341357852311146 0.09680953342872736
0.16422052257649067 0.09574226172336613
0.15522972763146647 0.09451035904197831
0.14644660940672616 0.09311463004036576
0.1378764585242665 0.09155769004972301
0.12952443732252045 0.08984349261885843
0.12139557674675777 0.08797679172000875
0.11349477331863145 0.08596260225565784
0.10582678618669683 0.08380572369860112
0.09839623425967753 0.08151038606549785
0.09120759342420814 0.07908006531941685
0.08426519384872727 0.07651749774383539
0.07757321737514639 0.07382490144106996
0.07113569499986394 0.07100438993714901
0.06495650444564427 0.06805854022764025
0.059039367825822475 0.06499105780632015
0.05338784940224234 0.061807466406411424
0.048005353438278275 0.0585157420541081
0.042895122148234655 0.05512681068242023
0.038060233744356575 0.05165483634434879
0.03350360058263052 0.048117242573454934
0.029227967408489597 0.04453443147274229
0.025235909703481607 0.04092919180082953
0.021529832133895532 0.0373258162883726
0.018111967102280024 0.033748976984784206
0.014984373402728013 0.03022243288959679
0.012148934980735715 0.026767663965068487
0.009607359798384785 0.02340253781819674
0.007361178805529334 0.02014011850716359
0.005411745017609493 0.016987720503848967
0.0037602327006450165 0.013946295141955447
0.0024076366639015356 0.01101021307420322
0.0013547716606548965 0.008167476293353406
0.0006022718974137975 0.005400359678233019
0.00015059065189787502 0.002686447712731626
0.0 0.0
0.00015059065189787502 -0.002556962629848641
0.0006022718974137975 -0.005098518861463971
0.0013547716606548965 -0.007609771780907177
0.0024076366639015356 -0.010076809279963168
0.0037602327006450165 -0.012487113691906682
0.005411745017609493 -0.014829879291483732
0.007361178805529334 -0.017096218315486845
0.009607359798384785 -0.019279244741606902
0.012148934980735715 -0.021374034443762634
0.014984373402728013 -0.02337746978247254
0.018111967102280024 -0.025287985443962605
0.021529832133895532 -0.027105239719485134
0.025235909703481607 -0.028829740832402848
0.029227967408489597 -0.030462460945076833
0.03350360058263052 -0.0320044708697342
0.038060233744356575 -0.03345662623580221
0.042895122148234655 -0.03481933111203077
0.048005353438278275 -0.03609239822608431
0.05338784940224234 -0.037275016518537527
0.059039367825822475 -0.03836582749103986
0.06495650444564427 -0.03936310241210056
0.07113569499986394 -0.04026500369429275
0.07757321737514639 -0.04106990637119384
0.08426519384872727 -0.04177675019178288
0.09120759342420814 -0.04238538986773255
0.09839623425967753 -0.04289691071297753
0.10582678618669683 -0.04331387934479185
0.11349477331863145 -0.04364050408772033
0.12139557674675777 -0.0438826868422551
0.12952443732252045 -0.04404795687570587
0.1378764585242665 -0.04414528655604461
0.14644660940672616 -0.04418479869686126
0.15522972763146647 -0.04417738411699608
0.16422052257649067 -0.044134255499797076
0.17341357852311146 -0.04406646903816532
0.18280335791817703 -0.04398444821565553
0.19238420470968637 -0.043897544152585906
0.20215034775378343 -0.04381366422201825
0.2120959042910774 -0.04373899533020668
0.2222148834901989 -0.04367784079355559
0.23250119005645137 -0.04363258074508346
0.2429486279033891 -0.043603756214621
0.2535509038851079 -0.04359026726354125
0.26430163158700104 -0.04358966663126627
0.27519433517269654 -0.04359852301183127
0.28622245328485874 -0.04361282293555144
0.29737934299750524 -0.043628377708327525
0.30865828381745486 -0.043641202161336726
0.320052481732506 -0.04364783504805056
0.33155507330389 -0.04364557651725545
0.3431591298005543 -0.04363262569951152
0.35485766137276875 -0.04360811040800598
0.36664362126255073 -0.04357201049638334
0.3785099100483679 -0.04352498571224519
0.3904493799215649 -0.04346812713662632
0.4024548389919357 -0.04340265780198821
0.41451905561984914 -0.043329612284534615
0.42663476277231926 -0.043249526624135046
0.43879466240039156 -0.04316216872236543
0.4509914298352198 -0.04306633553302345
0.46321771820016633 -0.0429597372458612
0.475466162836291 -0.04283898082561421
0.4877293857385438 -0.042699656403817135
0.4999999999999999 -0.04253652091365969
0.512270614261456 -0.042343764806020166
0.5245338371637088 -0.0421153404295615
0.5367822817998334 -0.04184532532009305
0.54900857016478 -0.04152829067025346
0.5612053375996082 -0.04115964487350643
0.5733652372276805 -0.040735924259294023
0.5854809443801506 -0.04025500773354994
0.5975451610080642 -0.03971623857988059
0.6095506200784349 -0.03912044456646111
0.6214900899516319 -0.03846985603781215
0.6333563787374491 -0.03776793009991782
0.645142338627231 -0.03701909660477515
0.6568408701994456 -0.03622844776612607
0.6684449266961098 -0.03540139739334994
0.6799475182674938 -0.03454333760017761
0.691341716182545 -0.0336593203214189
0.7026206570024947 -0.03275378815909143
0.713777546715141 -0.03183037428203476
0.7248056648273034 -0.030891784789129625
0.7356983684129987 -0.02993976970414735
0.746449096114892 -0.028975181252273864
0.7570513720966108 -0.027998110930106047
0.7674988099435485 -0.027008090722516354
0.7777851165098009 -0.02600433913369629
0.7879040957089227 -0.024986029830117107
0.7978496522462164 -0.023952559810303115
0.8076157952903136 -0.02290379510759204
0.8171966420818224 -0.021840274910412988
0.8265864214768883 -0.02076335931274997
0.8357794774235092 -0.019675311235128865
0.8447702723685334 -0.01857930886672065
0.8535533905932737 -0.01747939073906715
0.8621235414757333 -0.016380340752517947
0.8704755626774794 -0.015287524717284307
0.8786044232532422 -0.014206692935218049
0.8865052266813687 -0.013143764865306905
0.894173213813303 -0.012104611959264705
0.9016037657403225 -0.01109485343580739
0.9087924065757916 -0.010119677314899673
0.9157348061512727 -0.009183695777540217
0.9224267826248536 -0.008290840226055834
0.928864305000136 -0.007444297680065359
0.9350434955543556 -0.006646486712953266
0.9409606321741775 -0.005899068310351424
0.9466121505977576 -0.005202985026172754
0.9519946465617215 -0.004558520731071364
0.9571048778517655 -0.00396537309445059
0.9619397662556433 -0.003422731617325511
0.9664963994173694 -0.00292935536160774
0.9707720325915102 -0.0024836462683751554
0.9747640902965183 -0.0020837158645198896
0.9784701678661044 -0.0017274449704246376
0.98188803289772 -0.0014125375216513542
0.985015626597272 -0.0011365706429335898
0.9878510650192642 -0.0008970435734802233
0.9903926402016152 -0.0006914279278438614
0.9926388211944706 -0.0005172211507607413
0.9945882549823906 -0.00037200401492321777
0.9962397672993549 -0.0002535017890404243
0.9975923633360985 -0.00015964746148546482
0.998645228339345 -8.86443290583502e-05
0.9993977281025862 -3.902450891110846e-05
0.9998494093481021 -9.699614281516809e-06
1.0 0.0
