1.0 0.0
0.9998494093481021 2.976293671609279e-05
0.9993977281025862 0.00011908164956318791
0.998645228339345 0.00026803922736226543
0.9975923633360985 0.00047675324934926146
0.9962397672993549 0.0007453483271344095
0.9945882549823906 0.0010739248565312034
0.9926388211944706 0.0014625298599520063
0.9903926402016152 0.0019111358037023952
0.9878510650192642 0.002419632340501021
0.985015626597272 0.0029878341519255754
0.98188803289772 0.0036155056629895346
0.9784701678661044 0.004302400679607873
0.9747640902965183 0.005048312322523799
0.9707720325915102 0.005853126371079403
0.9664963994173694 0.006716869621333319
0.9619397662556433 0.00763974435707862
0.9571048778517655 0.008622140663238208
0.9519946465617215 0.009664620074025994
0.9466121505977576 0.010767866794944224
0.9409606321741775 0.011932606189816144
0.9350434955543556 0.013159494002732645
0.928864305000136 0.014448983453421983
0.9224267826248536 0.015801180459870154
0.9157348061512727 0.017215699407587184
0.9087924065757916 0.018691532800433373
0.9016037657403225 0.020226947628482806
0.894173213813303 0.021819419368642796
0.8865052266813687 0.023465611353643213
0.8786044232532422 0.02516140311621799
0.8704755626774794 0.026901966669079697
0.8621235414757333 0.028681885021549558
0.8535533905932737 0.030495303080099383
0.8447702723685334 0.032336097907953484
0.8357794774235092 0.034198053502853716
0.8265864214768883 0.03607502501995826
0.8171966420818224 0.03796107876982073
0.8076157952903136 0.03985059722413953
0.7978496522462164 0.04173834235426047
0.7879040957089227 0.043619475456582034
0.7777851165098009 0.04548953663971563
0.7674988099435485 0.04734439178415937
0.7570513720966108 0.04918015849579718
0.746449096114892 0.05099312491874163
0.7356983684129987 0.052779675963172255
0.7248056648273034 0.05453624044203811
0.713777546715141 0.056259269904034605
0.7026206570024947 0.057945255902703274
0.691341716182545 0.0595907875206265
0.6799475182674938 0.06119264575319294
0.6684449266961098 0.06274792647306837
0.6568408701994456 0.06425417974040608
0.645142338627231 0.0657095506900863
0.6333563787374491 0.06711290644804535
0.6214900899516319 0.06846393462893284
0.6095506200784349 0.06976320184394173
0.5975451610080642 0.07101216497593539
0.5854809443801506 0.0722131332454024
0.5733652372276805 0.0733691846498162
0.5612053375996082 0.0744840455079731
0.54900857016478 0.07556194590434413
0.5367822817998334 0.07660746624251381
0.5245338371637088 0.07762539050350602
0.512270614261456 0.078620580027408
0.4999999999999999 0.07959787782810596
0.4877293857385438 0.08056204801118012
0.475466162836291 0.08151774842659844
0.46321771820016633 0.08246952805150858
0.4509914298352198 0.08342183464539998
0.43879466240039156 0.08437901380986167
0.42663476277231926 0.0853452784510263
0.41451905561984914 0.08632462829430175
0.4024548389919357 0.0873207027486507
0.3904493799215649 0.08833655692688577
0.3785099100483679 0.08937435951053382
0.36664362126255073 0.09043502159106924
0.35485766137276875 0.09151777655851556
0.3431591298005543 0.09261974132730522
0.33155507330389 0.0937354974461813
0.320052481732506 0.09485673580288936
0.30865828381745486 0.09597200981760096
0.29737934299750524 0.09706663869045454
0.28622245328485874 0.09812279433612248
0.27519433517269654 0.09911979348809787
0.26430163158700104 0.10003460094279454
0.2535509038851079 0.10084253230355929
0.2429486279033891 0.10151812644611963
0.23250119005645137 0.10203614098895374
0.2222148834901989 0.10237261003641007
0.2120959042910774 0.10250589390809724
0.20215034775378343 0.10241764666573414
0.19238420470968637 0.10209362970265919
0.18280335791817703 0.10152430859466252
0.17341357852311146 0.10070518532523048
0.16422052257649067 0.09963683779402696
0.15522972763146647 0.09832466157526376
0.14644660940672616 0.09677833321084038
0.1378764585242665 0.09501103769787893
0.12952443732252045 0.09303852306291881
0.12139557674675777 0.09087806002648947
0.11349477331863145 0.0885473931926526
0.10582678618669683 0.08606377097417298
0.09839623425967753 0.08344313430942178
0.09120759342420814 0.08069952961273202
0.08426519384872727 0.07784479051964667
0.07757321737514639 0.07488850766449125
0.07113569499986394 0.07183827825156562
0.06495650444564427 0.06870020010535961
0.059039367825822475 0.06547955078330907
0.05338784940224234 0.06218157355482779
0.048005353438278275 0.05881228048418557
0.042895122148234655 0.05537917974553842
0.038060233744356575 0.05189184010822881
0.03350360058263052 0.0483622198804523
0.029227967408489597 0.044804709289713716
0.025235909703481607 0.04123586238822879
0.021529832133895532 0.03767382462955393
0.018111967102280024 0.034137492474974024
0.014984373402728013 0.030645468898496286
0.012148934980735715 0.027214900821038304
0.009607359798384785 0.023860299135204047
0.007361178805529334 0.02059244757741856
0.005411745017609493 0.01741750258885708
0.0037602327006450165 0.014336372708025276
0.0024076366639015356 0.011344444074506833
0.0013547716606548965 0.008431690207682288
0.0006022718974137975 0.005583171889057728
0.00015059065189787502 0.0027798996417778728
0.0 0.0
0.00015059065189787502 -0.002460366322179522
0.0006022718974137975 -0.004904107770637792
0.0013547716606548965 -0.007315206167527893
0.0024076366639015356 -0.00967881946042666
0.0037602327006450165 -0.011981779271058103
0.005411745017609493 -0.014212987055422037
0.007361178805529334 -0.01636368654999294
0.009607359798384785 -0.018427598903540163
0.012148934980735715 -0.020400916513957913
0.014984373402728013 -0.022282161390883144
0.018111967102280024 -0.024071923122060745
0.021529832133895532 -0.02577249955088205
0.025235909703481607 -0.027387469484684356
0.029227967408489597 -0.028921230697501334
0.03350360058263052 -0.030378537889588775
0.038060233744356575 -0.03176407403681223
0.042895122148234655 -0.03308208482522573
0.048005353438278275 -0.034336099932376914
0.05338784940224234 -0.035528757268966905
0.059039367825822475 -0.036661737546832975
0.06495650444564427 -0.0377358073908755
0.07113569499986394 -0.03875096039254145
0.07757321737514639 -0.039706637712104094
0.08426519384872727 -0.040602003693815114
0.09120759342420814 -0.041436247946032886
0.09839623425967753 -0.04220888376840085
0.10582678618669683 -0.04292001379153687
0.11349477331863145 -0.04357053713359817
0.12139557674675777 -0.044162277972105424
0.12952443732252045 -0.04469802269924853
0.1378764585242665 -0.04518146115502255
0.14644660940672616 -0.04561703610588407
0.15522972763146647 -0.04600971341731313
0.16422052257649067 -0.04636469254807646
0.17341357852311146 -0.04668708245471679
0.18280335791817703 -0.04698157126372984
0.19238420470968637 -0.04725211885854241
0.20215034775378343 -0.047501699762880906
0.2120959042910774 -0.04773211952527569
0.2222148834901989 -0.04794392157425645
0.23250119005645137 -0.0481363937535202
0.2429486279033891 -0.04830767512990161
0.2535509038851079 -0.04845495494187005
0.26430163158700104 -0.048574747484338564
0.27519433517269654 -0.048663220016569794
0.28622245328485874 -0.048716546029220244
0.29737934299750524 -0.048731253841959414
0.30865828381745486 -0.04870454074627078
0.320052481732506 -0.04863452575340536
0.33155507330389 -0.04852041922105922
0.3431591298005543 -0.04836259477088535
0.35485766137276875 -0.04816255735746072
0.36664362126255073 -0.04792281037436959
0.3785099100483679 -0.047646633496767545
0.3904493799215649 -0.047337790789182994
0.4024548389919357 -0.04700019476272325
0.41451905561984914 -0.04663755600227139
0.42663476277231926 -0.046253049350128486
0.43879466240039156 -0.045849026301517784
0.4509914298352198 -0.04542679935003547
0.46321771820016633 -0.04498651785577849
0.475466162836291 -0.04452714713173714
0.4877293857385438 -0.0440465535419298
0.4999999999999999 -0.043541689254181226
0.512270614261456 -0.04300886168872636
0.5245338371637088 -0.042444065398408205
0.5367822817998334 -0.04184334873863556
0.54900857016478 -0.041203184695538984
0.5612053375996082 -0.04052081488753808
0.5733652372276805 -0.03979453805520413
0.5854809443801506 -0.03902391909106955
0.5975451610080642 -0.038209901407801915
0.6095506200784349 -0.03735481360115152
0.6214900899516319 -0.03646227021754435
0.6333563787374491 -0.035536975216961864
0.645142338627231 -0.03458444467786919
0.6568408701994456 -0.033610671752911284
0.6684449266961098 -0.0326217613228052
0.6799475182674938 -0.03162356386713271
0.691341716182545 -0.030621337642446487
0.7026206570024947 -0.02961946541776783
0.713777546715141 -0.02862124706005101
0.7248056648273034 -0.027628782659029943
0.7356983684129987 -0.026642953234214364
0.746449096114892 -0.02566349805283233
0.7570513720966108 -0.02468917989440352
0.7674988099435485 -0.02371802286420669
0.7777851165098009 -0.0227476021184411
0.7879040957089227 -0.021775361504025235
0.7978496522462164 -0.020798933843609407
0.8076157952903136 -0.019816439429625722
0.8171966420818224 -0.018826741064227142
0.8265864214768883 -0.017829638367389516
0.8357794774235092 -0.016825989620790995
0.8447702723685334 -0.01581775558920975
0.8535533905932737 -0.014807966006194334
0.8621235414757333 -0.013800615193950884
0.8704755626774794 -0.012800498148576919
0.8786044232532422 -0.011813002011491958
0.8865052266813687 -0.01084386995331237
0.894173213813303 -0.009898955052816696
0.9016037657403225 -0.008983980841346153
0.9087924065757916 -0.008104323010299268
0.9157348061512727 -0.007264823654212583
0.9224267826248536 -0.006469645715322349
0.928864305000136 -0.005722171401125841
0.9350434955543556 -0.005024944640371976
0.9409606321741775 -0.0043796544476007795
0.9466121505977576 -0.003787153622607192
0.9519946465617215 -0.0032475056601353786
0.9571048778517655 -0.0027600521217600515
0.9619397662556433 -0.002323492960434942
0.9664963994173694 -0.0019359732374089852
0.9707720325915102 -0.0015951711183370034
0.9747640902965183 -0.0012983837348556227
0.9784701678661044 -0.0010426092018224642
0.98188803289772 -0.0008246245674609397
0.985015626597272 -0.0006410605727927352
0.9878510650192642 -0.0004884747037768601
0.9903926402016152 -0.0003634241047983299
0.9926388211944706 -0.0002625395286622824
0.9945882549823906 -0.00018260073162497788
0.9962397672993549 -0.00012061273285533541
0.9975923633360985 -7.388131961565303e-05
0.998645228339345 -4.0085264866303444e-05
0.9993977281025862 -1.734208149418774e-05
0.9998494093481021 -4.263872588462185e-06
1.0 0.0
