1.0 0.0
0.9998494093481021 2.8524674203862403e-05
0.9993977281025862 0.00011390730803566976
0.998645228339345 0.00025557810203710436
0.9975923633360985 0.00045260251714791187
0.9962397672993549 0.0007037058234827782
0.9945882549823906 0.0010073107107595673
0.9926388211944706 0.0013615901669214092
0.9903926402016152 0.0017645371614980017
0.9878510650192642 0.0022140513123621365
0.985015626597272 0.0027080407870460252
0.98188803289772 0.0032445354133294386
0.9784701678661044 0.003821804645723474
0.9747640902965183 0.004438471991823674
0.9707720325915102 0.005093616078257339
0.9664963994173694 0.0057868480137154175
0.9619397662556433 0.0065183552796517765
0.9571048778517655 0.0072889041193603685
0.9519946465617215 0.008099795236038359
0.9466121505977576 0.008952771343025127
0.9409606321741775 0.009849879404250101
0.9350434955543556 0.010793294838521119
0.928864305000136 0.011785119069903347
0.9224267826248536 0.01282716512637147
0.9157348061512727 0.013920748118355019
0.9087924065757916 0.015066498074754964
0.9016037657403225 0.016264211630488468
0.894173213813303 0.017512756470086367
0.8865052266813687 0.01881003843298479
0.8786044232532422 0.020153036131775957
0.8704755626774794 0.021537902301381324
0.8621235414757333 0.022960125434863844
0.8535533905932737 0.024414740134764964
0.8447702723685334 0.02589657053430342
0.8357794774235092 0.02740048853192317
0.8265864214768883 0.02892166769449189
0.8171966420818224 0.030455814594844522
0.8076157952903136 0.031999361940981026
0.7978496522462164 0.03354961182808416
0.7879040957089227 0.0351048223526251
0.7777851165098009 0.036664236123321925
0.7674988099435485 0.03822805430300846
0.7570513720966108 0.03979736416544479
0.746449096114892 0.041374031293377155
0.7356983684129987 0.042960569169203745
0.7248056648273034 0.044559998893741064
0.713777546715141 0.046175710189540344
0.7026206570024947 0.047811331973712595
0.691341716182545 0.04947061705335393
0.6799475182674938 0.051157341446008454
0.6684449266961098 0.05287521504311954
0.6568408701994456 0.05462779737147272
0.645142338627231 0.05641841052078347
0.6333563787374491 0.05825004118781605
0.6214900899516319 0.06012522532728126
0.6095506200784349 0.062045911962334915
0.5975451610080642 0.06401330694218259
0.5854809443801506 0.06602770230949256
0.5733652372276805 0.06808830180190034
0.5612053375996082 0.07019305715939417
0.54900857016478 0.07233853268154458
0.5367822817998334 0.0745198163384969
0.5245338371637088 0.07673049434950234
0.512270614261456 0.07896270241838668
0.4999999999999999 0.08120726095401541
0.4877293857385438 0.083453894079898
0.475466162836291 0.08569152376511249
0.46321771820016633 0.08790862187608305
0.4509914298352198 0.090093595324394
0.43879466240039156 0.09223517371430404
0.42663476277231926 0.09432276578558614
0.41451905561984914 0.09634675107879233
0.4024548389919357 0.09829867688223748
0.3904493799215649 0.10017133754973444
0.3785099100483679 0.10195872322575177
0.36664362126255073 0.1036558370529962
0.35485766137276875 0.10525839296009463
0.3431591298005543 0.10676241885125953
0.33155507330389 0.10816380111342241
0.320052481732506 0.1094578145770033
0.30865828381745486 0.11063868639836431
0.29737934299750524 0.11169924210486433
0.28622245328485874 0.11263067702117978
0.27519433517269654 0.11342248672280966
0.26430163158700104 0.11406257676309055
0.2535509038851079 0.11453755584403498
0.2429486279033891 0.11483319932706473
0.23250119005645137 0.11493505317546238
0.2222148834901989 0.11482913378123197
0.2120959042910774 0.11450266820419139
0.20215034775378343 0.11394481337901308
0.19238420470968637 0.11314729261522684
0.18280335791817703 0.11210489346631747
0.17341357852311146 0.11081578242350759
0.16422052257649067 0.10928160796361874
0.15522972763146647 0.1075073828072734
0.14644660940672616 0.10550115700290656
0.1378764585242665 0.10327351361409381
0.12952443732252045 0.10083693631239955
0.12139557674675777 0.09820511122014661
0.11349477331863145 0.09539223244996205
0.10582678618669683 0.09241238104128666
0.09839623425967753 0.08927904014658217
0.09120759342420814 0.08600479582482352
0.08426519384872727 0.08260125379265727
0.07757321737514639 0.07907917969104335
0.07113569499986394 0.07544884601177707
0.06495650444564427 0.07172054519475839
0.059039367825822475 0.06790520795920299
0.05338784940224234 0.06401505084330844
0.048005353438278275 0.06006416891571136
0.042895122148234655 0.056068989769329926
0.038060233744356575 0.05204851353216382
0.03350360058263052 0.048024280232428995
0.029227967408489597 0.04402002914798878
0.025235909703481607 0.0400610427750161
0.021529832133895532 0.03617319827465951
0.018111967102280024 0.03238177891570191
0.014984373402728013 0.028710124311576248
0.012148934980735715 0.025178218574234145
0.009607359798384785 0.021801327784922737
0.007361178805529334 0.018588801017899264
0.005411745017609493 0.015543141993525467
0.0037602327006450165 0.0126594416370213
0.0024076366639015356 0.009925236625312832
0.0013547716606548965 0.007320827453781736
0.0006022718974137975 0.0048200542966933095
0.00015059065189787502 0.002391492994199961
0.0 0.0
0.00015059065189787502 -0.0027316168118057924
0.0006022718974137975 -0.005444221349555417
0.0013547716606548965 -0.008119396989156098
0.0024076366639015356 -0.01073988111301737
0.0037602327006450165 -0.013290051649931602
0.005411745017609493 -0.015756312602151386
0.007361178805529334 -0.018127356837370705
0.009607359798384785 -0.02039429346865708
0.012148934980735715 -0.022550637066322314
0.014984373402728013 -0.024592165979588652
0.018111967102280024 -0.02651666642247574
0.021529832133895532 -0.028323586979672025
0.025235909703481607 -0.03001363420456191
0.029227967408489597 -0.03158834355932726
0.03350360058263052 -0.03304966082392001
0.038060233744356575 -0.03439956722684605
0.042895122148234655 -0.03563977709265214
0.048005353438278275 -0.03677153012883852
0.05338784940224234 -0.0377954921331184
0.059039367825822475 -0.038711768566388326
0.06495650444564427 -0.03952002586094999
0.07113569499986394 -0.040219706288370224
0.07757321737514639 -0.04081031442330972
0.08426519384872727 -0.04129174733197003
0.09120759342420814 -0.041664637055980024
0.09839623425967753 -0.041930673031826834
0.10582678618669683 -0.0420928738443882
0.11349477331863145 -0.042155782002126295
0.12139557674675777 -0.04212556187439672
0.12952443732252045 -0.04200998900325691
0.1378764585242665 -0.04181832801493979
0.14644660940672616 -0.04156110555441264
0.15522972763146647 -0.041249793280573245
0.16422052257649067 -0.04089642327036259
0.17341357852311146 -0.04051316357906793
0.18280335791817703 -0.0401118847456263
0.19238420470968637 -0.039703748470836256
0.20215034775378343 -0.039298847510058285
0.2120959042910774 -0.03890592121165682
0.2222148834901989 -0.038532164507130026
0.23250119005645137 -0.03818314010039646
0.2429486279033891 -0.037862794816811346
0.2535509038851079 -0.03757357232400213
0.26430163158700104 -0.03731660648897703
0.27519433517269654 -0.037091973180692385
0.28622245328485874 -0.036898973924332085
0.29737934299750524 -0.036736422841971095
0.30865828381745486 -0.0366029089383313
0.320052481732506 -0.03649700894450251
0.33155507330389 -0.03641743132670549
0.3431591298005543 -0.03636307921179356
0.35485766137276875 -0.036333028229911433
0.36664362126255073 -0.03632642388148179
0.3785099100483679 -0.03634231122070437
0.3904493799215649 -0.03637941666686472
0.4024548389919357 -0.036435906965839704
0.41451905561984914 -0.036509153244722356
0.42663476277231926 -0.03659552845306804
0.43879466240039156 -0.036690264214134974
0.4509914298352198 -0.03678738840173316
0.46321771820016633 -0.03687975801413205
0.475466162836291 -0.03695919372007009
0.4877293857385438 -0.03701671351876948
0.4999999999999999 -0.03704285406948938
0.512270614261456 -0.03702806018859909
0.5245338371637088 -0.03696311649474559
0.5367822817998334 -0.03683959078313754
0.54900857016478 -0.03665025682154278
0.5612053375996082 -0.036389465057840485
0.5733652372276805 -0.03605343315306866
0.5854809443801506 -0.03564043401884522
0.5975451610080642 -0.03515086665695528
0.6095506200784349 -0.034587203928073865
0.6214900899516319 -0.03395382067305512
0.6333563787374491 -0.033256714597531455
0.645142338627231 -0.032503140266952675
0.6568408701994456 -0.03170118280167749
0.6684449266961098 -0.030859301920668263
0.6799475182674938 -0.029985878561500725
0.691341716182545 -0.029088795323199346
0.7026206570024947 -0.028175078574577486
0.713777546715141 -0.02725062458356988
0.7248056648273034 -0.026320024958955343
0.7356983684129987 -0.025386498680085315
0.746449096114892 -0.024451929708938253
0.7570513720966108 -0.02351700131743023
0.7674988099435485 -0.022581411446287464
0.7777851165098009 -0.02164414815161851
0.7879040957089227 -0.02070380084946904
0.7978496522462164 -0.019758881815712632
0.8076157952903136 -0.01880813322973268
0.8171966420818224 -0.017850797778191166
0.8265864214768883 -0.016886835119046716
0.8357794774235092 -0.015917071889796127
0.8447702723685334 -0.014943278903124031
0.8535533905932737 -0.013968175165954912
0.8621235414757333 -0.012995363875497188
0.8704755626774794 -0.012029210157187189
0.8786044232532422 -0.011074673696211243
0.8865052266813687 -0.010137111393510078
0.894173213813303 -0.009222065709395653
0.9016037657403225 -0.008335053541121766
0.9087924065757916 -0.007481368531217171
0.9157348061512727 -0.006665906925948956
0.9224267826248536 -0.005893023854625821
0.928864305000136 -0.0051664235493514505
0.9350434955543556 -0.004489083913718907
0.9409606321741775 -0.0038632132604321735
0.9466121505977576 -0.003290235169801488
0.9519946465617215 -0.0027707963720184007
0.9571048778517655 -0.002304792322350986
0.9619397662556433 -0.001891405622265353
0.9664963994173694 -0.0015291534675973457
0.9707720325915102 -0.0012159416537445048
0.9747640902965183 -0.0009491240935606043
0.9784701678661044 -0.0007255680725964438
0.98188803289772 -0.0005417263829777333
0.985015626597272 -0.0003937179061456924
0.9878510650192642 -0.0002774180946808237
0.9903926402016152 -0.000188560152103714
0.9926388211944706 -0.00012284661840800996
0.9945882549823906 -7.60696898636681e-05
0.9962397672993549 -4.423712572249846e-05
0.9975923633360985 -2.3699228033376007e-05
0.998645228339345 -1.1271318627243907e-05
0.9993977281025862 -4.345538548466205e-06
0.9998494093481021 -9.857635130693955e-07
1.0 0.0
