1.0 0.0
0.9998494093481021 2.234425896884197e-05
0.9993977281025862 8.947762481613954e-05
0.998645228339345 0.00020169086840559914
0.9975923633360985 0.0003594333926070643
0.9962397672993549 0.0005632652550031252
0.9945882549823906 0.0008137990400972171
0.9926388211944706 0.0011116391866734113
0.9903926402016152 0.001457326703747754
0.9878510650192642 0.0018512964828589023
0.985015626597272 0.0022938527172454183
0.98188803289772 0.0027851654771359822
0.9784701678661044 0.0033252885729781324
0.9747640902965183 0.003914195836230104
0.9707720325915102 0.004551830249148932
0.9664963994173694 0.005238158318767422
0.9619397662556433 0.005973220997775154
0.9571048778517655 0.006757172475450893
0.9519946465617215 0.007590299328388752
0.9466121505977576 0.008473014723902082
0.9409606321741775 0.00940582536665789
0.9350434955543556 0.010389272323615844
0.928864305000136 0.011423850340622078
0.9224267826248536 0.012509913346379043
0.9157348061512727 0.01364757613169774
0.9087924065757916 0.014836623383683025
0.9016037657403225 0.016076437159134035
0.894173213813303 0.017365952461366664
0.8865052266813687 0.018703647959506353
0.8786044232532422 0.020087575325414282
0.8704755626774794 0.0215154265455984
0.8621235414757333 0.02298463435408924
0.8535533905932737 0.02449249711037365
0.8447702723685334 0.026036316463322554
0.8357794774235092 0.027613534359331268
0.8265864214768883 0.02922185560050391
0.8171966420818224 0.030859343305139602
0.8076157952903136 0.032524477164110985
0.7978496522462164 0.034216168055877856
0.7879040957089227 0.035933726978313145
0.7777851165098009 0.037676790886458575
0.7674988099435485 0.03944521236830188
0.7570513720966108 0.04123892365109749
0.746449096114892 0.04305778780198117
0.7356983684129987 0.04490145089975471
0.7248056648273034 0.04676920831260714
0.713777546715141 0.0486598961080312
0.7026206570024947 0.05057181531302184
0.691341716182545 0.05250269264975648
0.6799475182674938 0.0544496770091483
0.6684449266961098 0.05640936684493711
0.6568408701994456 0.058377860397731705
0.645142338627231 0.06035081861936527
0.6333563787374491 0.06232353013904956
0.6214900899516319 0.06429096867910412
0.6095506200784349 0.06624783586664645
0.5975451610080642 0.06818858607606265
0.5854809443801506 0.07010743428638945
0.5733652372276805 0.07199835234770595
0.5612053375996082 0.07385506288106652
0.54900857016478 0.07567104268677385
0.5367822817998334 0.07743954852333816
0.5245338371637088 0.07915367714789753
0.512270614261456 0.08080646851677936
0.4999999999999999 0.08239105622896979
0.4877293857385438 0.08390086310334981
0.475466162836291 0.08532983287413998
0.46321771820016633 0.08667268217783557
0.4509914298352198 0.08792515116012581
0.43879466240039156 0.0890842269856794
0.42663476277231926 0.09014831298032266
0.41451905561984914 0.09111731753573615
0.4024548389919357 0.09199264142078516
0.3904493799215649 0.09277704958740073
0.3785099100483679 0.09347442340140126
0.36664362126255073 0.09408940062548946
0.35485766137276875 0.09462692234689335
0.3431591298005543 0.09509171715085656
0.33155507330389 0.09548776195399346
0.320052481732506 0.0958177649079237
0.30865828381745486 0.09608271779060291
0.29737934299750524 0.09628156280421281
0.28622245328485874 0.0964110116124327
0.27519433517269654 0.09646554316410931
0.26430163158700104 0.09643759220979027
0.2535509038851079 0.0963179236632778
0.2429486279033891 0.09609617062327341
0.23250119005645137 0.0957614976294215
0.2222148834901989 0.09530333724557408
0.2120959042910774 0.09471213881692121
0.20215034775378343 0.09398006436621628
0.19238420470968637 0.09310156872904049
0.18280335791817703 0.09207380926344508
0.17341357852311146 0.09089684428837454
0.16422052257649067 0.0895735977141577
0.15522972763146647 0.08810958854054739
0.14644660940672616 0.08651244607160562
0.1378764585242665 0.08479125271384094
0.12952443732252045 0.08295577399283356
0.12139557674675777 0.08101564808765152
0.11349477331863145 0.07897961331287659
0.10582678618669683 0.07685485073087252
0.09839623425967753 0.07464651029692236
0.09120759342420814 0.07235747320058718
0.08426519384872727 0.0699883816393463
0.07757321737514639 0.06753794201337332
0.07113569499986394 0.06500348076547285
0.06495650444564427 0.06238170633408074
0.059039367825822475 0.05966960845174546
0.05338784940224234 0.056865409560569555
0.048005353438278275 0.05396947420015641
0.042895122148234655 0.05098508195536138
0.038060233744356575 0.04791897824109704
0.03350360058263052 0.044781634317082625
0.029227967408489597 0.041587172120529696
0.025235909703481607 0.03835293872767208
0.021529832133895532 0.03509874692715846
0.018111967102280024 0.031845829636664165
0.014984373402728013 0.02861558381678443
0.012148934980735715 0.025428201475691532
0.009607359798384785 0.022301299155499645
0.007361178805529334 0.019248661498595384
0.005411745017609493 0.016279208519196217
0.0037602327006450165 0.013396280388278435
0.0024076366639015356 0.0105973091232617
0.0013547716606548965 0.007873915606164838
0.0006022718974137975 0.005212435507644584
0.00015059065189787502 0.0025948420241758445
0.0 0.0
0.00015059065189787502 -0.002240729098832423
0.0006022718974137975 -0.0044635745516662705
0.0013547716606548965 -0.006651416007759964
0.0024076366639015356 -0.00878861348795599
0.0037602327006450165 -0.010861635175476714
0.005411745017609493 -0.01285955893017142
0.007361178805529334 -0.01477441909295689
0.009607359798384785 -0.01660138056696429
0.012148934980735715 -0.018338733690729424
0.014984373402728013 -0.01998771522703119
0.018111967102280024 -0.02155217203436845
0.021529832133895532 -0.023038093870466292
0.025235909703481607 -0.024453049609977896
0.029227967408489597 -0.025805566411642555
0.03350360058263052 -0.02710449371102343
0.038060233744356575 -0.02835839323247297
0.042895122148234655 -0.029574992625342886
0.048005353438278275 -0.030760734169503024
0.05338784940224234 -0.03192044178893828
0.059039367825822475 -0.033057120032480625
0.06495650444564427 -0.03417188849475531
0.07113569499986394 -0.03526404515855437
0.07757321737514639 -0.03633124311216792
0.08426519384872727 -0.03736975771050013
0.09120759342420814 -0.038374816041036666
0.09839623425967753 -0.03934095787233154
0.10582678618669683 -0.04026239723798482
0.11349477331863145 -0.041133356355380776
0.12139557674675777 -0.04194834839528472
0.12952443732252045 -0.042702392219508584
0.1378764585242665 -0.04339114995971514
0.14644660940672616 -0.04401098650272435
0.15522972763146647 -0.04455895783137554
0.16422052257649067 -0.045032742037708816
0.17341357852311146 -0.04543053206843234
0.18280335791817703 -0.04575091242447537
0.19238420470968637 -0.045992742851456055
0.20215034775378343 -0.046155070475297426
0.2120959042910774 -0.046237088025293374
0.2222148834901989 -0.04623815011827718
0.23250119005645137 -0.04615785259619913
0.2429486279033891 -0.04599617228255329
0.2535509038851079 -0.045753656981415425
0.26430163158700104 -0.04543164881501668
0.27519433517269654 -0.04503251874238525
0.28622245328485874 -0.04455988685478304
0.29737934299750524 -0.044018802157753424
0.30865828381745486 -0.04341585716714383
0.320052481732506 -0.04275921668315612
0.33155507330389 -0.04205854625619501
0.3431591298005543 -0.04132483361820889
0.35485766137276875 -0.04057010506683766
0.36664362126255073 -0.039807047704015525
0.3785099100483679 -0.03904855676270181
0.3904493799215649 -0.038307234261757216
0.4024548389919357 -0.03759487027265835
0.41451905561984914 -0.036921940689850656
0.42663476277231926 -0.036297155303692236
0.43879466240039156 -0.0357270871484001
0.4509914298352198 -0.03521590874152931
0.46321771820016633 -0.03476525337103984
0.475466162836291 -0.034374210629577094
0.4877293857385438 -0.03403945568275978
0.4999999999999999 -0.03375550209467003
0.512270614261456 -0.03351505922037717
0.5245338371637088 -0.03330946793823
0.5367822817998334 -0.03312918342138218
0.54900857016478 -0.03296427113668206
0.5612053375996082 -0.032804882484449474
0.5733652372276805 -0.03264167939254807
0.5854809443801506 -0.03246618246084325
0.5975451610080642 -0.032271024424535937
0.6095506200784349 -0.032050099118376286
0.6214900899516319 -0.03179860503367051
0.6333563787374491 -0.03151299119279197
0.645142338627231 -0.031190820688445982
0.6568408701994456 -0.03083057321894921
0.6684449266961098 -0.030431411826993698
0.6799475182674938 -0.029992940546350606
0.691341716182545 -0.029514978725380916
0.7026206570024947 -0.028997374592831065
0.713777546715141 -0.028439875523225043
0.7248056648273034 -0.027842065969937383
0.7356983684129987 -0.027203376796634704
0.746449096114892 -0.026523162433910313
0.7570513720966108 -0.025800835584609175
0.7674988099435485 -0.02503604369027513
0.7777851165098009 -0.024228867516657253
0.7879040957089227 -0.023380020316234127
0.7978496522462164 -0.022491026189401363
0.8076157952903136 -0.02156435840943968
0.8171966420818224 -0.0206035223366891
0.8265864214768883 -0.019613072712746395
0.8357794774235092 -0.018598561078796955
0.8447702723685334 -0.017566415232601006
0.8535533905932737 -0.016523758457077167
0.8621235414757333 -0.015478181205572894
0.8704755626774794 -0.01443748160146185
0.8786044232532422 -0.01340939322510267
0.8865052266813687 -0.012401319098179774
0.894173213813303 -0.011420089573835343
0.9016037657403225 -0.01047175919072443
0.9087924065757916 -0.009561453765253814
0.9157348061512727 -0.008693274482924337
0.9224267826248536 -0.007870260956932064
0.928864305000136 -0.00709441060019958
0.9350434955543556 -0.006366747612627725
0.9409606321741775 -0.005687431744744535
0.9466121505977576 -0.005055894980289178
0.9519946465617215 -0.004470993478682648
0.9571048778517655 -0.003931162503854334
0.9619397662556433 -0.00343456349444751
0.9664963994173694 -0.002979214665870592
0.9707720325915102 -0.0025630992791379663
0.9747640902965183 -0.0021842486404780354
0.9784701678661044 -0.0018407996941314413
0.98188803289772 -0.001531029465624233
0.985015626597272 -0.0012533703996608224
0.9878510650192642 -0.0010064116971196175
0.9903926402016152 -0.0007888920636719276
0.9926388211944706 -0.0005996889012351535
0.9945882549823906 -0.00043780804062961483
0.9962397672993549 -0.0003023768203443425
0.9975923633360985 -0.00019264187940627988
0.998645228339345 -0.00010797166686501041
0.9993977281025862 -4.7862562008194e-05
0.9998494093481021 -1.194678245989621e-05
1.0 0.0
