1.0 0.0
0.9998494093481021 2.5844888760999683e-05
0.9993977281025862 0.00010335704781824244
0.998645228339345 0.00023246735499584068
0.9975923633360985 0.0004130561840297149
0.9962397672993549 0.0006449498045489903
0.9945882549823906 0.0009279208584556156
0.9926388211944706 0.0012616972204697186
0.9903926402016152 0.0016459832455335236
0.9878510650192642 0.002080496256088377
0.985015626597272 0.0025650192320515754
0.98188803289772 0.0030994682525210364
0.9784701678661044 0.0036839706051677136
0.9747640902965183 0.004318946981448201
0.9707720325915102 0.005005189173046517
0.9664963994173694 0.005743923495782113
0.9619397662556433 0.006536850025667091
0.9571048778517655 0.007386148753855728
0.9519946465617215 0.008294445930844099
0.9466121505977576 0.009264737011789492
0.9409606321741775 0.010300266442848078
0.9350434955543556 0.011404368653754039
0.928864305000136 0.012580278600296667
0.9224267826248536 0.013830923583520466
0.9157348061512727 0.015158710460811079
0.9087924065757916 0.016565323455484983
0.9016037657403225 0.018051547400137022
0.894173213813303 0.01961712940856744
0.8865052266813687 0.02126068882042142
0.8786044232532422 0.02297968111173294
0.8704755626774794 0.024770416742519882
0.8621235414757333 0.026628131121070594
0.8535533905932737 0.028547097521318735
0.8447702723685334 0.030520771369180022
0.8357794774235092 0.03254195219134214
0.8265864214768883 0.034602948926943884
0.8171966420818224 0.036695735296480625
0.8076157952903136 0.038812084377700534
0.7978496522462164 0.04094367515850459
0.7879040957089227 0.04308216818613459
0.7777851165098009 0.0452192519845866
0.7674988099435485 0.04734666611349131
0.7570513720966108 0.04945621007346676
0.746449096114892 0.05153974930592051
0.7356983684129987 0.05358923002142128
0.7248056648273034 0.05559671343839988
0.713777546715141 0.05755443734168159
0.7026206570024947 0.05945490898723168
0.691341716182545 0.06129102875212087
0.6799475182674938 0.06305623912858671
0.6684449266961098 0.06474468929779424
0.6568408701994456 0.06635140216693003
0.645142338627231 0.06787242888046865
0.6333563787374491 0.06930497572338476
0.6214900899516319 0.07064749011118511
0.6095506200784349 0.07189969587035105
0.5975451610080642 0.07306257289347672
0.5854809443801506 0.07413828196018236
0.5733652372276805 0.07513004137424975
0.5612053375996082 0.07604196735455353
0.54900857016478 0.07687889414191516
0.5367822817998334 0.07764619197561408
0.5245338371637088 0.07834960107669263
0.512270614261456 0.07899509742567178
0.4999999999999999 0.07958880159427466
0.4877293857385438 0.08013693561472647
0.475466162836291 0.08064582551716498
0.46321771820016633 0.08112193958151902
0.4509914298352198 0.08157194546617269
0.43879466240039156 0.0820027641042915
0.42663476277231926 0.08242159538578771
0.41451905561984914 0.08283589072883044
0.4024548389919357 0.08325325094522844
0.3904493799215649 0.08368123422125845
0.3785099100483679 0.08412706810685854
0.36664362126255073 0.0845972703324087
0.35485766137276875 0.0850971949856678
0.3431591298005543 0.08563053184639377
0.33155507330389 0.0861987962150379
0.320052481732506 0.08680085320148775
0.30865828381745486 0.08743252320545601
0.29737934299750524 0.0880863136120445
0.28622245328485874 0.08875131536509512
0.27519433517269654 0.08941329236263433
0.26430163158700104 0.0900549773090477
0.2535509038851079 0.09065657094008327
0.2429486279033891 0.0911964239079963
0.23250119005645137 0.09165186375137922
0.2222148834901989 0.09200011496815103
0.2120959042910774 0.09221924979350096
0.20215034775378343 0.09228910206836692
0.19238420470968637 0.0921920773200004
0.18280335791817703 0.09191379906024288
0.17341357852311146 0.0914435439357918
0.16422052257649067 0.09077443575069334
0.15522972763146647 0.08990338902900222
0.14644660940672616 0.08883081482112799
0.1378764585242665 0.0875601228014111
0.12952443732252045 0.08609707227175525
0.12139557674675777 0.08444903859300308
0.11349477331863145 0.08262426932404789
0.10582678618669683 0.08063120502675117
0.09839623425967753 0.07847793302776522
0.09120759342420814 0.07617182886578464
0.08426519384872727 0.07371942083603998
0.07757321737514639 0.07112648971481952
0.07113569499986394 0.06839839059383758
0.06495650444564427 0.06554055920997903
0.059039367825822475 0.06255914366516242
0.05338784940224234 0.05946168621146699
0.048005353438278275 0.05625777059550647
0.042895122148234655 0.052959549445408025
0.038060233744356575 0.049582073713600225
0.03350360058263052 0.04614336181108898
0.029227967408489597 0.042664168541247584
0.025235909703481607 0.03916744132634408
0.021529832133895532 0.03567748105698624
0.018111967102280024 0.0322188544225727
0.014984373402728013 0.02881513099696364
0.012148934980735715 0.025487539079811525
0.009607359798384785 0.022253647226642047
0.007361178805529334 0.019126182119040065
0.005411745017609493 0.016112087338780487
0.0037602327006450165 0.013211912023913499
0.0024076366639015356 0.01041959449202472
0.0013547716606548965 0.007722675692127221
0.0006022718974137975 0.005102943377997101
0.00015059065189787502 0.0025374731443779924
0.0 0.0
0.00015059065189787502 -0.002480734776254327
0.0006022718974137975 -0.004943138578079923
0.0013547716606548965 -0.007369622184624122
0.0024076366639015356 -0.009744034138736033
0.0037602327006450165 -0.012052268445188972
0.005411745017609493 -0.01428274750564609
0.007361178805529334 -0.01642675244991059
0.009607359798384785 -0.018478583497685948
0.012148934980735715 -0.020435544559216985
0.014984373402728013 -0.022297758115525344
0.018111967102280024 -0.02406782765452692
0.021529832133895532 -0.02575037477358815
0.025235909703481607 -0.027351485798138026
0.029227967408489597 -0.028878107878301196
0.03350360058263052 -0.03033743668121406
0.038060233744356575 -0.03173633689112622
0.042895122148234655 -0.03308083288959101
0.048005353438278275 -0.03437570056111308
0.05338784940224234 -0.035624182694124304
0.059039367825822475 -0.0368278406097265
0.06495650444564427 -0.03798654423104897
0.07113569499986394 -0.03909859261523881
0.07757321737514639 -0.04016094778582727
0.08426519384872727 -0.04116955720881346
0.09120759342420814 -0.04211973498660382
0.09839623425967753 -0.04300656914594023
0.10582678618669683 -0.043825322400045344
0.11349477331863145 -0.044571796379194374
0.12139557674675777 -0.045242634242824084
0.12952443732252045 -0.045835543320395696
0.1378764585242665 -0.04634942734640368
0.14644660940672616 -0.046784426239641186
0.15522972763146647 -0.047141869486337105
0.16422052257649067 -0.04742415631910286
0.17341357852311146 -0.04763458143694892
0.18280335791817703 -0.04777712853586408
0.19238420470968637 -0.04785625515446143
0.20215034775378343 -0.04787669123632819
0.2120959042910774 -0.04784327053565673
0.2222148834901989 -0.0477608089093477
0.23250119005645137 -0.0476340371752426
0.2429486279033891 -0.047467589216355015
0.2535509038851079 -0.047266039075290596
0.26430163158700104 -0.047033974603851905
0.27519433517269654 -0.046776090430412726
0.28622245328485874 -0.046497280072374775
0.29737934299750524 -0.046202706266990086
0.30865828381745486 -0.04589783012831918
0.320052481732506 -0.04558838344975527
0.33155507330389 -0.045280274038584284
0.3431591298005543 -0.04497942088683582
0.35485766137276875 -0.04469152360847761
0.36664362126255073 -0.044421778183904866
0.3785099100483679 -0.04417455791159616
0.3904493799215649 -0.04395308389056718
0.4024548389919357 -0.04375911278056399
0.41451905561984914 -0.04359267061635607
0.42663476277231926 -0.043451859905349104
0.43879466240039156 -0.04333276316228964
0.4509914298352198 -0.043229459709591564
0.46321771820016633 -0.04313416448396412
0.475466162836291 -0.043037488394633644
0.4877293857385438 -0.04292881024209423
0.4999999999999999 -0.04279674114000807
0.512270614261456 -0.042629654570431254
0.5245338371637088 -0.04241624933079775
0.5367822817998334 -0.04214610922829755
0.54900857016478 -0.0418102227653124
0.5612053375996082 -0.04140142832432169
0.5733652372276805 -0.0409147553434257
0.5854809443801506 -0.04034763928403414
0.5975451610080642 -0.03969999724207502
0.6095506200784349 -0.03897416110826273
0.6214900899516319 -0.0381746754237872
0.6333563787374491 -0.03730797667591332
0.645142338627231 -0.036381978964272345
0.6568408701994456 -0.03540559710004957
0.6684449266961098 -0.03438824181411528
0.6799475182674938 -0.03333932260170938
0.691341716182545 -0.0322677918118406
0.7026206570024947 -0.031181759123143655
0.713777546715141 -0.030088198967626666
0.7248056648273034 -0.028992765369775835
0.7356983684129987 -0.027899719772332764
0.746449096114892 -0.026811968479825667
0.7570513720966108 -0.025731198103993096
0.7674988099435485 -0.02465809049445727
0.7777851165098009 -0.0235925935971481
0.7879040957089227 -0.022534221836164076
0.7978496522462164 -0.021482359093284904
0.8076157952903136 -0.020436539087591365
0.8171966420818224 -0.01939668166784979
0.8265864214768883 -0.01836326879435672
0.8357794774235092 -0.017337450261643378
0.8447702723685334 -0.01632107589465701
0.8535533905932737 -0.015316657431322172
0.8621235414757333 -0.01432726902847573
0.8704755626774794 -0.01335639984136103
0.8786044232532422 -0.01240777511174281
0.8865052266813687 -0.011485163498295526
0.894173213813303 -0.010592188002686949
0.9016037657403225 -0.009732155948521138
0.9087924065757916 -0.008907920351635049
0.9157348061512727 -0.008121781067643394
0.9224267826248536 -0.00737542975616436
0.928864305000136 -0.0066699384063559665
0.9350434955543556 -0.006005787332153094
0.9409606321741775 -0.0053829254983033935
0.9466121505977576 -0.00480085400584576
0.9519946465617215 -0.004258722653604035
0.9571048778517655 -0.003755429683232802
0.9619397662556433 -0.0032897159794142454
0.9664963994173694 -0.0028602469129286
0.9707720325915102 -0.0024656774002468325
0.9747640902965183 -0.002104698300195854
0.9784701678661044 -0.0017760646762829376
0.98188803289772 -0.001478608464048526
0.985015626597272 -0.0012112395055056434
0.9878510650192642 -0.0009729396410510012
0.9903926402016152 -0.0007627545680653113
0.9926388211944706 -0.000579787556503645
0.9945882549823906 -0.00042319799964903417
0.9962397672993549 -0.00029220636825532585
0.9975923633360985 -0.00018610564783624824
0.998645228339345 -0.00010427798644954029
0.9993977281025862 -4.621424694545585e-05
0.9998494093481021 -1.1533572656328234e-05
1.0 0.0
