1.0 0.0
0.9998494093481021 2.7433234150556698e-05
0.9993977281025862 0.00010980835228072978
0.998645228339345 0.00024733924244404104
0.9975923633360985 0.0004403428269816472
0.9962397672993549 0.00068918525181266
0.9945882549823906 0.0009942168729265859
0.9926388211944706 0.001355704749656466
0.9903926402016152 0.0017737717658329463
0.9878510650192642 0.0022483507191631315
0.985015626597272 0.0027791598314788036
0.98188803289772 0.003365703363221168
0.9784701678661044 0.004007297703457288
0.9747640902965183 0.004703119863460286
0.9707720325915102 0.005452272161943838
0.9664963994173694 0.006253854457683423
0.9619397662556433 0.007107033884405884
0.9571048778517655 0.008011101876154359
0.9519946465617215 0.00896550939355466
0.9466121505977576 0.009969873570102898
0.9409606321741775 0.011023952242972871
0.9350434955543556 0.012127586645341786
0.928864305000136 0.013280616470079045
0.9224267826248536 0.014482775096230615
0.9157348061512727 0.015733575559935393
0.9087924065757916 0.017032199494941846
0.9016037657403225 0.01837740153843095
0.894173213813303 0.019767440527470002
0.8865052266813687 0.021200046301614303
0.8786044232532422 0.022672427339904308
0.8704755626774794 0.02418132018994085
0.8621235414757333 0.025723077174896053
0.8535533905932737 0.02729378470545588
0.8447702723685334 0.02888940116395462
0.8357794774235092 0.030505901167362647
0.8265864214768883 0.032139412319481454
0.8171966420818224 0.03378633142739582
0.8076157952903136 0.03544340949710433
0.7978496522462164 0.03710779837726622
0.7879040957089227 0.03877705628025375
0.7777851165098009 0.040449114067721705
0.7674988099435485 0.042122208593746824
0.7570513720966108 0.043794793026064774
0.746449096114892 0.0454654364760306
0.7356983684129987 0.047132726163265644
0.7248056648273034 0.04879518460408698
0.713777546715141 0.05045121202391423
0.7026206570024947 0.05209906062482668
0.691341716182545 0.05373684292490538
0.6799475182674938 0.055362571673760526
0.6684449266961098 0.05697422443532793
0.6568408701994456 0.05856982238796206
0.645142338627231 0.06014751070175642
0.6333563787374491 0.061705627336015346
0.6214900899516319 0.06324274837642725
0.6095506200784349 0.06475770099877191
0.5975451610080642 0.06624953948182102
0.5854809443801506 0.06771748488634872
0.5733652372276805 0.0691608344269406
0.5612053375996082 0.07057885148631943
0.54900857016478 0.0719706509804173
0.5367822817998334 0.07333509680764275
0.5245338371637088 0.07467072802333193
0.512270614261456 0.07597572802698532
0.4999999999999999 0.07724794656437811
0.4877293857385438 0.07848497812981503
0.475466162836291 0.07968429304644715
0.46321771820016633 0.08084340992329718
0.4509914298352198 0.08196009124676441
0.43879466240039156 0.08303253846234064
0.42663476277231926 0.08405955982372595
0.41451905561984914 0.08504068410195967
0.4024548389919357 0.08597619623344266
0.3904493799215649 0.08686707707582143
0.3785099100483679 0.08771483820944644
0.36664362126255073 0.08852125341143408
0.35485766137276875 0.08928800001210496
0.3431591298005543 0.09001623462079456
0.33155507330389 0.09070613743049946
0.320052481732506 0.09135646631262587
0.30865828381745486 0.09196416524331519
0.29737934299750524 0.09252407064071569
0.28622245328485874 0.0930287537331891
0.27519433517269654 0.09346852737785945
0.26430163158700104 0.09383163252246458
0.2535509038851079 0.09410460387501268
0.2429486279033891 0.09427279775124818
0.23250119005645137 0.09432104912344438
0.2222148834901989 0.09423441122886372
0.2120959042910774 0.09399892119665636
0.20215034775378343 0.09360233019317661
0.19238420470968637 0.09303473729863447
0.18280335791817703 0.09228907290447835
0.17341357852311146 0.09136138947036425
0.16422052257649067 0.09025093404391375
0.15522972763146647 0.08895999657362863
0.14644660940672616 0.08749354891635361
0.1378764585242665 0.08585870953886357
0.12952443732252045 0.0840640862198087
0.12139557674675777 0.08211906175578157
0.11349477331863145 0.08003309433714437
0.10582678618669683 0.07781510400729981
0.09839623425967753 0.0754730092309292
0.09120759342420814 0.07301346355101797
0.08426519384872727 0.07044182276750849
0.07757321737514639 0.06776234976411875
0.07113569499986394 0.06497863921876433
0.06495650444564427 0.062094220363430104
0.059039367825822475 0.05911327511950069
0.05338784940224234 0.056041393498015034
0.048005353438278275 0.05288627983955826
0.042895122148234655 0.049658323357364996
0.038060233744356575 0.046370954860711674
0.03350360058263052 0.04304072798110955
0.029227967408489597 0.039687086419743264
0.025235909703481607 0.03633180671322948
0.021529832133895532 0.03299813629315417
0.018111967102280024 0.029709676419783223
0.014984373402728013 0.02648908609604032
0.012148934980735715 0.02335670374193859
0.009607359798384785 0.02032919614200701
0.007361178805529334 0.017418347568128555
0.005411745017609493 0.014630095461321223
0.0037602327006450165 0.011963902964382154
0.0024076366639015356 0.009412534154794254
0.0013547716606548965 0.006962267040694705
0.0006022718974137975 0.004593544867981672
0.00015059065189787502 0.0022820310336147923
0.0 0.0
0.00015059065189787502 -0.002200081611959651
0.0006022718974137975 -0.004387339898882196
0.0013547716606548965 -0.006549584558033157
0.0024076366639015356 -0.008675845684293245
0.0037602327006450165 -0.010756873266197139
0.005411745017609493 -0.012785513141624296
0.007361178805529334 -0.014756932982883098
0.009607359798384785 -0.016668683073374893
0.012148934980735715 -0.01852058894592363
0.014984373402728013 -0.020314485445940295
0.018111967102280024 -0.022053813517164234
0.021529832133895532 -0.02374311109842018
0.025235909703481607 -0.02538743720706014
0.029227967408489597 -0.026991772992790233
0.03350360058263052 -0.028560444926592453
0.038060233744356575 -0.03009661325037844
0.042895122148234655 -0.03160186352278754
0.048005353438278275 -0.033075930973271744
0.05338784940224234 -0.034516577055411474
0.059039367825822475 -0.035919625874375354
0.06495650444564427 -0.037279155961369846
0.07113569499986394 -0.03858783112364181
0.07757321737514639 -0.039837343717253955
0.08426519384872727 -0.04101893546708397
0.09120759342420814 -0.04212395551793724
0.09839623425967753 -0.04314441314489725
0.10582678618669683 -0.04407348362991161
0.11349477331863145 -0.04490593011062388
0.12139557674675777 -0.045638411357214484
0.12952443732252045 -0.04626965483914303
0.1378764585242665 -0.04680048533501406
0.14644660940672616 -0.047233710829802
0.15522972763146647 -0.047573878606421934
0.16422052257649067 -0.04782692437820123
0.17341357852311146 -0.04799974523609323
0.18280335791817703 -0.04809973248042982
0.19238420470968637 -0.048134302672829185
0.20215034775378343 -0.04811046433300615
0.2120959042910774 -0.04803445373443819
0.2222148834901989 -0.04791146659131787
0.23250119005645137 -0.04774550366661586
0.2429486279033891 -0.04753933822708738
0.2535509038851079 -0.04729460269072277
0.26430163158700104 -0.047011981652494095
0.27519433517269654 -0.046691489588293375
0.28622245328485874 -0.04633280466169604
0.29737934299750524 -0.0459356257527387
0.30865828381745486 -0.04550001842703615
0.320052481732506 -0.0450267171506724
0.33155507330389 -0.04451735545807866
0.3431591298005543 -0.04397460258340897
0.35485766137276875 -0.04340219365522354
0.36664362126255073 -0.042804850166482056
0.3785099100483679 -0.04218809722350965
0.3904493799215649 -0.04155799319875663
0.4024548389919357 -0.04092079508016867
0.41451905561984914 -0.040282588376817814
0.42663476277231926 -0.03964891344783653
0.43879466240039156 -0.0390244203389898
0.4509914298352198 -0.038412581652951104
0.46321771820016633 -0.037815487901093826
0.475466162836291 -0.03723374265762027
0.4877293857385438 -0.036666466303997204
0.4999999999999999 -0.03611140796872862
0.512270614261456 -0.0355651562352804
0.5245338371637088 -0.03502343108433768
0.5367822817998334 -0.03448143303684907
0.54900857016478 -0.033934221101027895
0.5612053375996082 -0.033377089233580924
0.5733652372276805 -0.032805911715653786
0.5854809443801506 -0.03221743100338643
0.5975451610080642 -0.03160946691584584
0.6095506200784349 -0.03098103296542136
0.6214900899516319 -0.030332353583911346
0.6333563787374491 -0.029664784247441314
0.645142338627231 -0.028980644344631285
0.6568408701994456 -0.028282979411298884
0.6684449266961098 -0.027575274530515417
0.6799475182674938 -0.026861143885371107
0.691341716182545 -0.02614402245588262
0.7026206570024947 -0.025426884670935533
0.713777546715141 -0.024712011651012968
0.7248056648273034 -0.024000823863684427
0.7356983684129987 -0.023293790044805023
0.746449096114892 -0.022590416676183188
0.7570513720966108 -0.021889315741762703
0.7674988099435485 -0.021188342466220037
0.7777851165098009 -0.020484789750687467
0.7879040957089227 -0.019775622420155937
0.7978496522462164 -0.01905773240105053
0.8076157952903136 -0.018328195613769967
0.8171966420818224 -0.017584512598807552
0.8265864214768883 -0.016824817466594758
0.8357794774235092 -0.016048043335805635
0.8447702723685334 -0.015254036601765282
0.8535533905932737 -0.014443616731996872
0.8621235414757333 -0.013618582415736843
0.8704755626774794 -0.0127816684525311
0.8786044232532422 -0.011936460494247935
0.8865052266813687 -0.011087276505204566
0.894173213813303 -0.01023902454158287
0.9016037657403225 -0.00939704624821001
0.9087924065757916 -0.008566954494977911
0.9157348061512727 -0.007754472060341545
0.9224267826248536 -0.006965276484392061
0.928864305000136 -0.006204854429380458
0.9350434955543556 -0.005478367341250348
0.9409606321741775 -0.004790529084325395
0.9466121505977576 -0.004145495629153515
0.9519946465617215 -0.0035467668316405674
0.9571048778517655 -0.0029971007871000166
0.9619397662556433 -0.002498442040342243
0.9664963994173694 -0.0020518658945471295
0.9707720325915102 -0.0016575419728953507
0.9747640902965183 -0.0013147208353330511
0.9784701678661044 -0.0010217476562241975
0.98188803289772 -0.0007761065993722812
0.985015626597272 -0.000574498529634947
0.9878510650192642 -0.00041295310111490603
0.9903926402016152 -0.0002869741674553059
0.9926388211944706 -0.00019171504743189705
0.9945882549823906 -0.0001221776781226255
0.9962397672993549 -7.342735479300681e-05
0.9975923633360985 -4.081284621017227e-05
0.998645228339345 -2.018041119466118e-05
0.9993977281025862 -8.069795664773808e-06
0.9998494093481021 -1.8807520792619674e-06
1.0 0.0
