1.0 0.0
0.9998494093481021 2.915592597263794e-05
0.9993977281025862 0.0001166230770779453
0.998645228339345 0.0002623971440199831
0.9975923633360985 0.00046646372490455795
0.9962397672993549 0.0007287904088551156
0.9945882549823906 0.0010493209854589816
0.9926388211944706 0.0014279759033299024
0.9903926402016152 0.0018646627969788336
0.9878510650192642 0.0023592997879932796
0.985015626597272 0.0029118524511839517
0.98188803289772 0.003522383035953354
0.9784701678661044 0.00419110804935828
0.9747640902965183 0.004918457989155039
0.9707720325915102 0.005705131214102251
0.9664963994173694 0.00655213296261876
0.9619397662556433 0.007460790600778097
0.9571048778517655 0.008432737398225932
0.9519946465617215 0.009469859458739396
0.9466121505977576 0.010574203692006269
0.9409606321741775 0.011747848599122625
0.9350434955543556 0.012992743754523504
0.928864305000136 0.014310527747463272
0.9224267826248536 0.01570233754188276
0.9157348061512727 0.017168624322617416
0.9087924065757916 0.018708991618691707
0.9016037657403225 0.020322070672343696
0.894173213813303 0.02200544566171676
0.8865052266813687 0.02375563766222429
0.8786044232532422 0.025568151478645267
0.8704755626774794 0.027437584152348267
0.8621235414757333 0.029357788576486642
0.8535533905932737 0.03132208078529154
0.8447702723685334 0.03332347562763556
0.8357794774235092 0.03535493309565557
0.8265864214768883 0.03740959681528405
0.8171966420818224 0.03948100719802203
0.8076157952903136 0.041563274394202196
0.7978496522462164 0.04365120019072302
0.7879040957089227 0.04574034292654304
0.7777851165098009 0.047827024823598456
0.7674988099435485 0.04990828627673954
0.7570513720966108 0.05198179606785289
0.746449096114892 0.05404572971008711
0.7356983684129987 0.056098629874292066
0.7248056648273034 0.058139262967077235
0.713777546715141 0.06016648447929326
0.7026206570024947 0.06217912295420108
0.691341716182545 0.06417588874300902
0.6799475182674938 0.06615530963703113
0.6684449266961098 0.06811569155035109
0.6568408701994456 0.07005509920895008
0.645142338627231 0.07197134972206623
0.6333563787374491 0.0738620112569378
0.6214900899516319 0.07572439990338095
0.6095506200784349 0.07755557008283197
0.5975451610080642 0.07935229720711147
0.5854809443801506 0.08111105523537318
0.5733652372276805 0.08282799571085632
0.5612053375996082 0.08449893814026802
0.54900857016478 0.08611938360873878
0.5367822817998334 0.08768456382693617
0.5245338371637088 0.08918953610269897
0.512270614261456 0.09062933098031094
0.4999999999999999 0.09199915372690808
0.4877293857385438 0.09329463395818599
0.475466162836291 0.09451211019577639
0.46321771820016633 0.09564892889960809
0.4509914298352198 0.09670373144429617
0.43879466240039156 0.09767669848946056
0.42663476277231926 0.09856971996000671
0.41451905561984914 0.0993864608872272
0.4024548389919357 0.10013229882684503
0.3904493799215649 0.10081411726222655
0.3785099100483679 0.10143995074523945
0.36664362126255073 0.10201849061278818
0.35485766137276875 0.10255847377102735
0.3431591298005543 0.10306798993395482
0.33155507330389 0.10355375348653555
0.320052481732506 0.10402039357935272
0.30865828381745486 0.10446981916992933
0.29737934299750524 0.10490071389406055
0.28622245328485874 0.10530820872334475
0.27519433517269654 0.10568376868492918
0.26430163158700104 0.10601531431865
0.2535509038851079 0.10628758028874453
0.2429486279033891 0.1064826942408227
0.23250119005645137 0.1065809403692099
0.2222148834901989 0.10656165601606334
0.2120959042910774 0.10640419757648474
0.20215034775378343 0.10608890531338373
0.19238420470968637 0.10559799619667902
0.18280335791817703 0.10491631980410866
0.17341357852311146 0.10403192426785335
0.16422052257649067 0.10293639623322405
0.15522972763146647 0.10162495929986669
0.14644660940672616 0.10009633753878988
0.1378764585242665 0.09835241230266922
0.12952443732252045 0.09639771954523475
0.12139557674675777 0.09423884931270438
0.11349477331863145 0.09188381744022743
0.10582678618669683 0.08934148081644133
0.09839623425967753 0.08662106158229746
0.09120759342420814 0.0837318327426161
0.08426519384872727 0.0806829990275135
0.07757321737514639 0.07748378419052253
0.07113569499986394 0.07414371146670917
0.06495650444564427 0.07067304007896676
0.059039367825822475 0.06708329992599864
0.05338784940224234 0.06338785113128279
0.048005353438278275 0.05960238674061362
0.042895122148234655 0.05574529664426841
0.038060233744356575 0.051837819113971
0.03350360058263052 0.0479039227029538
0.029227967408489597 0.04396988437531931
0.025235909703481607 0.040063557625313974
0.021529832133895532 0.03621335450970644
0.018111967102280024 0.032446995142459835
0.014984373402728013 0.028790104451402978
0.012148934980735715 0.025264756269356932
0.009607359798384785 0.02188807701484571
0.007361178805529334 0.018671023898675605
0.005411745017609493 0.015617445209460405
0.0037602327006450165 0.012723513138405902
0.0024076366639015356 0.009977594056945411
0.0013547716606548965 0.007360589213873257
0.0006022718974137975 0.004846743144196453
0.00015059065189787502 0.0024048807321758537
0.0 0.0
0.00015059065189787502 -0.0022819805286937896
0.0006022718974137975 -0.004542369870421165
0.0013547716606548965 -0.006760487484042304
0.0024076366639015356 -0.0089174185570951
0.0037602327006450165 -0.010996761846823305
0.005411745017609493 -0.012985226081894835
0.007361178805529334 -0.014873041253678663
0.009607359798384785 -0.016654163921262805
0.012148934980735715 -0.018326269777232267
0.014984373402728013 -0.019890541135531334
0.018111967102280024 -0.02135127065584414
0.021529832133895532 -0.022715314520754936
0.025235909703481607 -0.023991437579409823
0.029227967408489597 -0.0251895990124902
0.03350360058263052 -0.02632022945575231
0.038060233744356575 -0.02739354912033421
0.042895122148234655 -0.02841897143223867
0.048005353438278275 -0.029404628519398783
0.05338784940224234 -0.030357044179848993
0.059039367825822475 -0.03128096763146387
0.06495650444564427 -0.032179368352760945
0.07113569499986394 -0.03305357969629838
0.07757321737514639 -0.0339035676726732
0.08426519384872727 -0.03472829222907123
0.09120759342420814 -0.035526122162636974
0.09839623425967753 -0.03629526195930933
0.10582678618669683 -0.03703414950552681
0.11349477331863145 -0.03774178767187578
0.12139557674675777 -0.03841797982946319
0.12952443732252045 -0.039063448805712164
0.1378764585242665 -0.03967982980159265
0.14644660940672616 -0.040269539440530674
0.15522972763146647 -0.04083553441946479
0.16422052257649067 -0.04138098324021504
0.17341357852311146 -0.04190888238414656
0.18280335791817703 -0.04242165340716459
0.19238420470968637 -0.0429207593630733
0.20215034775378343 -0.043406377567984565
0.2120959042910774 -0.04387716113347186
0.2222148834901989 -0.04433011432567497
0.23250119005645137 -0.04476059728817487
0.2429486279033891 -0.04516246481274174
0.2535509038851079 -0.045528332577031365
0.26430163158700104 -0.04584995354496638
0.27519433517269654 -0.04611867794597516
0.28622245328485874 -0.046325963188315736
0.29737934299750524 -0.046463895801797134
0.30865828381745486 -0.04652568638774545
0.320052481732506 -0.04650610065183912
0.33155507330389 -0.04640179470813886
0.3431591298005543 -0.04621153051593372
0.35485766137276875 -0.04593625687745161
0.36664362126255073 -0.04557905206252318
0.3785099100483679 -0.045144934932372725
0.3904493799215649 -0.04464056150181894
0.4024548389919357 -0.04407383237509524
0.41451905561984914 -0.04345344272888486
0.42663476277231926 -0.04278841001414209
0.43879466240039156 -0.04208761506568161
0.4509914298352198 -0.041359389865418414
0.46321771820016633 -0.040611180076245146
0.475466162836291 -0.03984930315025253
0.4877293857385438 -0.03907881399788966
0.4999999999999999 -0.038303480680631524
0.512270614261456 -0.0375258631999033
0.5245338371637088 -0.036747480009763904
0.5367822817998334 -0.03596904008877028
0.54900857016478 -0.03519071381363322
0.5612053375996082 -0.03441241382224065
0.5733652372276805 -0.03363405764163212
0.5854809443801506 -0.032855786955372696
0.5975451610080642 -0.03207812364214987
0.6095506200784349 -0.03130204959756062
0.6214900899516319 -0.03052900518746182
0.6333563787374491 -0.029760809239876763
0.645142338627231 -0.028999511029706295
0.6568408701994456 -0.028247191079535255
0.6684449266961098 -0.02750573224913332
0.6799475182674938 -0.02677658514526754
0.691341716182545 -0.02606055218136047
0.7026206570024947 -0.025357612691949364
0.713777546715141 -0.024666807598004117
0.7248056648273034 -0.02398619663573683
0.7356983684129987 -0.023312894642035432
0.746449096114892 -0.022643186447686602
0.7570513720966108 -0.021972713195100253
0.7674988099435485 -0.021296716958364995
0.7777851165098009 -0.020610325893863402
0.7879040957089227 -0.01990885914702282
0.7978496522462164 -0.019188129579271004
0.8076157952903136 -0.018444723078626282
0.8171966420818224 -0.017676235628717635
0.8265864214768883 -0.016881453138532333
0.8357794774235092 -0.016060463870625173
0.8447702723685334 -0.015214698672148256
0.8535533905932737 -0.01434689961404308
0.8621235414757333 -0.013461022610168148
0.8704755626774794 -0.012562083722075946
0.8786044232532422 -0.011655961863528625
0.8865052266813687 -0.010749172335297262
0.894173213813303 -0.00984862601381653
0.9016037657403225 -0.008961388184385733
0.9087924065757916 -0.008094449158857882
0.9157348061512727 -0.007254516238918768
0.9224267826248536 -0.006447833615119432
0.928864305000136 -0.005680033772590305
0.9350434955543556 -0.004956021221517512
0.9409606321741775 -0.004279887137729111
0.9466121505977576 -0.003654851955536373
0.9519946465617215 -0.003083232173486912
0.9571048778517655 -0.0025664275874647674
0.9619397662556433 -0.00210492573925694
0.9664963994173694 -0.00169832137736174
0.9707720325915102 -0.0013453499423731045
0.9747640902965183 -0.001043935270810404
0.9784701678661044 -0.0007912526356193616
0.98188803289772 -0.0005838087307411685
0.985015626597272 -0.0004175401494964691
0.9878510650192642 -0.0002879312694505175
0.9903926402016152 -0.0001901512892892608
0.9926388211944706 -0.00011920859043225519
0.9945882549823906 -7.01188012053462e-05
0.9962397672993549 -3.808114438976307e-05
0.9975923633360985 -1.8656079366942223e-05
0.998645228339345 -7.936119027361567e-06
0.9993977281025862 -2.701176239044306e-06
0.9998494093481021 -5.499777086678711e-07
1.0 0.0
