1.0 0.0
0.9998494093481021 2.2437428440999453e-05
0.9993977281025862 8.978351095789621e-05
0.998645228339345 0.00020213852614673722
0.9975923633360985 0.0003596666261876121
0.9962397672993549 0.000562593787547413
0.9945882549823906 0.0008112092958096269
0.9926388211944706 0.001105874060713796
0.9903926402016152 0.0014470386626749335
0.9878510650192642 0.0018352729154211276
0.985015626597272 0.002271306995846143
0.98188803289772 0.0027560820476683562
0.9784701678661044 0.0032908058926881243
0.9747640902965183 0.003877007406523605
0.9707720325915102 0.004516581558435673
0.9664963994173694 0.005211816357194456
0.9619397662556433 0.005965393183720105
0.9571048778517655 0.006780353309904063
0.9519946465617215 0.0076600257546518445
0.9466121505977576 0.008607914834119478
0.9409606321741775 0.009627549528025943
0.9350434955543556 0.01072230072583451
0.928864305000136 0.011895176108738581
0.9224267826248536 0.013148605442989953
0.9157348061512727 0.014484231038594144
0.9087924065757916 0.015902718795808565
0.9016037657403225 0.017403604486019658
0.894173213813303 0.018985187714337787
0.8865052266813687 0.02064448256728522
0.8786044232532422 0.022377229580939736
0.8704755626774794 0.024177968802667444
0.8621235414757333 0.026040168855804607
0.8535533905932737 0.027956402551888457
0.8447702723685334 0.0299185561808486
0.8357794774235092 0.03191805749594665
0.8265864214768883 0.03394610680405082
0.8171966420818224 0.03599389651109923
0.8076157952903136 0.03805280682033984
0.7978496522462164 0.04011456873936035
0.7879040957089227 0.042171389696072925
0.7777851165098009 0.04421604139086648
0.7674988099435485 0.046241913500805164
0.7570513720966108 0.048243040025219674
0.746449096114892 0.05021410704644942
0.7356983684129987 0.052150451251443714
0.7248056648273034 0.05404805767640181
0.713777546715141 0.05590356294374216
0.7026206570024947 0.05771426707926964
0.691341716182545 0.059478153286643715
0.6799475182674938 0.06119391135902609
0.6684449266961098 0.06286095728377891
0.6568408701994456 0.06447943955031138
0.645142338627231 0.06605022208643173
0.6333563787374491 0.06757483483028848
0.6214900899516319 0.06905538568546807
0.6095506200784349 0.07049443177421685
0.5975451610080642 0.07189481305814556
0.5854809443801506 0.07325945693165994
0.5733652372276805 0.0745911676048194
0.5612053375996082 0.07589241825412023
0.54900857016478 0.0771651663755331
0.5367822817998334 0.07841071302195929
0.5245338371637088 0.07962962437158914
0.512270614261456 0.08082172935530234
0.4999999999999999 0.08198620016818697
0.4877293857385438 0.0831217139847208
0.475466162836291 0.0842266849093791
0.46321771820016633 0.08529954610587824
0.4509914298352198 0.08633905420176954
0.43879466240039156 0.08734458245159575
0.42663476277231926 0.0883163665858862
0.41451905561984914 0.08925566832996187
0.4024548389919357 0.0901648264516948
0.3904493799215649 0.09104717370149139
0.3785099100483679 0.09190680954999522
0.36664362126255073 0.092748232254431
0.35485766137276875 0.09357584825259074
0.3431591298005543 0.09439339078150735
0.33155507330389 0.09520329149889879
0.320052481732506 0.09600605741723103
0.30865828381745486 0.09679970956981433
0.29737934299750524 0.09757933882702792
0.28622245328485874 0.09833682795515768
0.27519433517269654 0.0990607776684966
0.26430163158700104 0.09973665889133851
0.2535509038851079 0.10034719500144962
0.2429486279033891 0.10087295810063344
0.23250119005645137 0.10129314418159102
0.2222148834901989 0.10158647528930433
0.2120959042910774 0.10173216410626834
0.20215034775378343 0.1017108691858391
0.19238420470968637 0.10150556819528742
0.18280335791817703 0.10110228230006414
0.17341357852311146 0.10049059687572076
0.16422052257649067 0.09966394110135246
0.15522972763146647 0.09861961014680196
0.14644660940672616 0.09735853667809961
0.1378764585242665 0.09588484109812744
0.12952443732252045 0.09420521011034624
0.12139557674675777 0.09232816882938985
0.11349477331863145 0.09026332114326045
0.10582678618669683 0.08802063530166061
0.09839623425967753 0.08560984639100754
0.09120759342420814 0.08304003482427895
0.08426519384872727 0.08031942130928048
0.07757321737514639 0.07745539568002949
0.07113569499986394 0.0744547716782595
0.06495650444564427 0.07132423472390227
0.059039367825822475 0.06807092741926252
0.05338784940224234 0.06470310028647774
0.048005353438278275 0.061230744896832154
0.042895122148234655 0.057666124336525855
0.038060233744356575 0.05402412232326819
0.03350360058263052 0.05032234687014537
0.029227967408489597 0.04658094600609023
0.025235909703481607 0.042822119811831226
0.021529832133895532 0.039069342478476064
0.018111967102280024 0.03534633748587
0.014984373402728013 0.03167587551313541
0.012148934980735715 0.028078485728205854
0.009607359798384785 0.02457118451459043
0.007361178805529334 0.021166330016635256
0.005411745017609493 0.0178707054812332
0.0037602327006450165 0.014684919506875602
0.0024076366639015356 0.011603188131267218
0.0013547716606548965 0.008613534138735297
0.0006022718974137975 0.005698405608227296
0.00015059065189787502 0.0028356814951423304
0.0 0.0
0.00015059065189787502 -0.0017400195837738391
0.0006022718974137975 -0.0034627216714086966
0.0013547716606548965 -0.005151496132070288
0.0024076366639015356 -0.006791104051453451
0.0037602327006450165 -0.008368257655337871
0.005411745017609493 -0.009872081861928957
0.007361178805529334 -0.011294431414458588
0.009607359798384785 -0.012630047740701443
0.012148934980735715 -0.013876550923298592
0.014984373402728013 -0.0150342736096702
0.018111967102280024 -0.016105954495040164
0.021529832133895532 -0.017096318379454745
0.025235909703481607 -0.018011577043265368
0.029227967408489597 -0.018858889781876984
0.03350360058263052 -0.01964582406877671
0.038060233744356575 -0.020379855382177334
0.042895122148234655 -0.021067940875419397
0.048005353438278275 -0.02171619465827803
0.05338784940224234 -0.022329683544409243
0.059039367825822475 -0.02291235192011089
0.06495650444564427 -0.02346707370869804
0.07113569499986394 -0.023995819083976997
0.07757321737514639 -0.02449991443404745
0.08426519384872727 -0.024980366805482056
0.09120759342420814 -0.02543821922807752
0.09839623425967753 -0.02587490129542709
0.10582678618669683 -0.026292540294554592
0.11349477331863145 -0.026694201940315482
0.12139557674675777 -0.027084036050315324
0.12952443732252045 -0.02746731076492325
0.1378764585242665 -0.02785032848689309
0.14644660940672616 -0.028240226795671945
0.15522972763146647 -0.028644677354072775
0.16422052257649067 -0.029071504470859714
0.17341357852311146 -0.029528251808695203
0.18280335791817703 -0.030021730182978705
0.19238420470968637 -0.030557581132155346
0.20215034775378343 -0.031139889830200336
0.2120959042910774 -0.031770877070312634
0.2222148834901989 -0.032450693815244507
0.23250119005645137 -0.03317733372134058
0.2429486279033891 -0.033946669788671516
0.2535509038851079 -0.0347526116492683
0.26430163158700104 -0.035587370785573044
0.27519433517269654 -0.036441812934702056
0.28622245328485874 -0.037305870735656436
0.29737934299750524 -0.038168985807334854
0.30865828381745486 -0.03902054819162969
0.320052481732506 -0.03985030251690369
0.33155507330389 -0.04064869416085618
0.3431591298005543 -0.0414071347326698
0.35485766137276875 -0.042118173788937056
0.36664362126255073 -0.042775572156125735
0.3785099100483679 -0.0433742807995637
0.3904493799215649 -0.043910337103204106
0.4024548389919357 -0.04438069702322228
0.41451905561984914 -0.04478302629846749
0.42663476277231926 -0.04511547636559556
0.43879466240039156 -0.04537647066840214
0.4509914298352198 -0.0455645247222731
0.46321771820016633 -0.04567811886160424
0.475466162836291 -0.045715636512419444
0.4877293857385438 -0.04567537368860222
0.4999999999999999 -0.045555617888915316
0.512270614261456 -0.04535478737711799
0.5245338371637088 -0.04507161562115639
0.5367822817998334 -0.044705361010011574
0.54900857016478 -0.04425601926706757
0.5612053375996082 -0.043724515458496725
0.5733652372276805 -0.043112854171262704
0.5854809443801506 -0.042424210122033255
0.5975451610080642 -0.04166294678712652
0.6095506200784349 -0.04083455710061607
0.6214900899516319 -0.03994552724343156
0.6333563787374491 -0.03900313139385895
0.645142338627231 -0.03801517140566524
0.6568408701994456 -0.036989680181191455
0.6684449266961098 -0.03593461059968139
0.6799475182674938 -0.03485753299758125
0.691341716182545 -0.0337653633140672
0.7026206570024947 -0.032664141234688436
0.713777546715141 -0.03155887328250697
0.7248056648273034 -0.030453450252336364
0.7356983684129987 -0.0293506421875595
0.746449096114892 -0.02825216783161719
0.7570513720966108 -0.027158829707037004
0.7674988099435485 -0.026070701179464036
0.7777851165098009 -0.02498734843974948
0.7879040957089227 -0.023908068529510232
0.7978496522462164 -0.022832124430656683
0.8076157952903136 -0.021758959760970836
0.8171966420818224 -0.02068837854095617
0.8265864214768883 -0.019620679475676143
0.8357794774235092 -0.01855673880021005
0.8447702723685334 -0.017498040502219415
0.8535533905932737 -0.016446657203425974
0.8621235414757333 -0.015405188751620514
0.8704755626774794 -0.01437666833643772
0.8786044232532422 -0.0133644475048831
0.8865052266813687 -0.012372071758627746
0.894173213813303 -0.01140315753895195
0.9016037657403225 -0.010461279539814213
0.9087924065757916 -0.009549874720220525
0.9157348061512727 -0.008672166457063387
0.9224267826248536 -0.007831109350431034
0.928864305000136 -0.007029352604803661
0.9350434955543556 -0.006269217943188266
0.9409606321741775 -0.005552686861640701
0.9466121505977576 -0.004881391787764931
0.9519946465617215 -0.004256606345662186
0.9571048778517655 -0.0036792313226090105
0.9619397662556433 -0.0031497748626007635
0.9664963994173694 -0.0026683276010776376
0.9707720325915102 -0.00223453559856657
0.9747640902965183 -0.0018475757321488751
0.9784701678661044 -0.0015061394092601623
0.98188803289772 -0.0012084308973151488
0.985015626597272 -0.0009521861271064808
0.9878510650192642 -0.000734716543125919
0.9903926402016152 -0.0005529805568193336
0.9926388211944706 -0.00040368261488057033
0.9945882549823906 -0.0002833970953376386
0.9962397672993549 -0.00018871149623448516
0.9975923633360985 -0.00011638099332967609
0.998645228339345 -6.348468952677498e-05
0.9993977281025862 -2.7572970970808926e-05
0.9998494093481021 -6.7954464868074024e-06
1.0 0.0
