1.0 0.0
0.9998494093481021 3.0163215638973047e-05
0.9993977281025862 0.00012045750148054097
0.998645228339345 0.0002702991627331534
0.9975923633360985 0.0004787241343070135
0.9962397672993549 0.0007444037560273446
0.9945882549823906 0.001065671584987944
0.9926388211944706 0.0014405647805868088
0.9903926402016152 0.0018668830996101974
0.9878510650192642 0.0023422672213465876
0.985015626597272 0.0028642960999329036
0.98188803289772 0.0034306005405352843
0.9784701678661044 0.004038987532575081
0.9747640902965183 0.00468756741102064
0.9707720325915102 0.005374874022520112
0.9664963994173694 0.006099967068162411
0.9619397662556433 0.006862505910574102
0.9571048778517655 0.007662785477251572
0.9519946465617215 0.008501727427118017
0.9466121505977576 0.009380823287779116
0.9409606321741775 0.010302030497889232
0.9350434955543556 0.011267626781450005
0.928864305000136 0.012280032560737755
0.9224267826248536 0.01334161470029721
0.9157348061512727 0.014454487336818233
0.9087924065757916 0.015620326563626679
0.9016037657403225 0.01684021512444923
0.894173213813303 0.018114531021062436
0.8865052266813687 0.01944289022395493
0.8786044232532422 0.020824148830092017
0.8704755626774794 0.022256464505969117
0.8621235414757333 0.023737411440554856
0.8535533905932737 0.025264137889878427
0.8447702723685334 0.026833551263306037
0.8357794774235092 0.028442513022886928
0.8265864214768883 0.030088024734542407
0.8171966420818224 0.031767387532822905
0.8076157952903136 0.033478319950992805
0.7978496522462164 0.03521902324646385
0.7879040957089227 0.03698818857801593
0.7777851165098009 0.03878494611227684
0.7674988099435485 0.04060876174656585
0.7570513720966108 0.04245929204263952
0.746449096114892 0.04433621166182035
0.7356983684129987 0.04623902970638151
0.7248056648273034 0.0481669117159707
0.713777546715141 0.0501185226549095
0.7026206570024947 0.05209190327049687
0.691341716182545 0.05408438809309877
0.6799475182674938 0.056092568603703284
0.6684449266961098 0.05811230029856943
0.6568408701994456 0.060138748114966584
0.645142338627231 0.0621664614539896
0.6333563787374491 0.06418946821655415
0.6214900899516319 0.06620137704381286
0.6095506200784349 0.06819547830150723
0.5975451610080642 0.07016483703849465
0.5854809443801506 0.07210237476912268
0.5733652372276805 0.0740009409295879
0.5612053375996082 0.07585337862547004
0.54900857016478 0.07765259221771878
0.5367822817998334 0.07939162587390329
0.5245338371637088 0.08106376208790336
0.512270614261456 0.08266264720670834
0.4999999999999999 0.08418244730463778
0.4877293857385438 0.08561803266580972
0.475466162836291 0.08696518324423799
0.46321771820016633 0.0882208014958459
0.4509914298352198 0.08938311372544665
0.43879466240039156 0.0904518373568134
0.42663476277231926 0.09142828999468262
0.41451905561984914 0.09231541727940701
0.4024548389919357 0.09311772053732488
0.3904493799215649 0.09384107198127457
0.3785099100483679 0.09449241426346569
0.36664362126255073 0.09507935177049182
0.35485766137276875 0.0956096521802752
0.3431591298005543 0.09609068732963795
0.33155507330389 0.09652885119593752
0.320052481732506 0.09692899870137134
0.30865828381745486 0.0972939512503813
0.29737934299750524 0.09762411288410328
0.28622245328485874 0.0979172345624661
0.27519433517269654 0.09816835369043786
0.26430163158700104 0.09836992235341331
0.2535509038851079 0.09851212196404474
0.2429486279033891 0.0985833455801482
0.23250119005645137 0.0985708136137265
0.2222148834901989 0.09846127559383724
0.2120959042910774 0.09824174148318052
0.20215034775378343 0.09790018187151768
0.19238420470968637 0.09742613782184369
0.18280335791817703 0.09681118833582976
0.17341357852311146 0.0960492358704939
0.16422052257649067 0.09513658706544174
0.15522972763146647 0.09407182534481603
0.14644660940672616 0.09285549251405367
0.1378764585242665 0.09148961588051627
0.12952443732252045 0.08997713381321618
0.12139557674675777 0.0883212842662223
0.11349477331863145 0.08652502627552755
0.10582678618669683 0.08459056301023647
0.09839623425967753 0.08251902648366093
0.09120759342420814 0.08031036907186292
0.08426519384872727 0.07796348677561454
0.07757321737514639 0.07547657549409265
0.07113569499986394 0.0728476966632425
0.06495650444564427 0.07007550486476942
0.059039367825822475 0.0671600698267264
0.05338784940224234 0.06410371074944261
0.048005353438278275 0.060911753761788374
0.042895122148234655 0.05759312455095006
0.038060233744356575 0.05416069805151039
0.03350360058263052 0.05063134494627965
0.029227967408489597 0.04702563925470167
0.025235909703481607 0.043367220418560636
0.021529832133895532 0.03968183449015112
0.018111967102280024 0.03599610946194481
0.014984373402728013 0.0323361466121388
0.012148934980735715 0.028726030393707764
0.009607359798384785 0.02518637178419043
0.007361178805529334 0.021733002765834775
0.005411745017609493 0.018375932197968257
0.0037602327006450165 0.015118656167985424
0.0024076366639015356 0.011957890251755096
0.0013547716606548965 0.008883759056560135
0.0006022718974137975 0.005880442648447747
0.00015059065189787502 0.002927243041063209
0.0 0.0
0.00015059065189787502 -0.002189252106974334
0.0006022718974137975 -0.004362259523710156
0.0013547716606548965 -0.006503534078920407
0.0024076366639015356 -0.008599050448561327
0.0037602327006450165 -0.010636855765117609
0.005411745017609493 -0.01260754302530379
0.007361178805529334 -0.014504558706733183
0.009607359798384785 -0.016324326992841785
0.012148934980735715 -0.018066186180611298
0.014984373402728013 -0.019732146211407266
0.018111967102280024 -0.0213264888157995
0.021529832133895532 -0.022855242560885364
0.025235909703481607 -0.024325573336122733
0.029227967408489597 -0.02574513591546886
0.03350360058263052 -0.027121433841234156
0.038060233744356575 -0.02846123291302465
0.042895122148234655 -0.029770068235326044
0.048005353438278275 -0.031051876541414676
0.05338784940224234 -0.032308775052973714
0.059039367825822475 -0.033540996304089535
0.06495650444564427 -0.03474697610314785
0.07113569499986394 -0.03592358009632115
0.07757321737514639 -0.03706644414586983
0.08426519384872727 -0.03817039573086788
0.09120759342420814 -0.039229918412016666
0.09839623425967753 -0.040239619433597267
0.10582678618669683 -0.0411946618578503
0.11349477331863145 -0.04209112706422538
0.12139557674675777 -0.04292628056938995
0.12952443732252045 -0.04369872328981042
0.1378764585242665 -0.04440842077324525
0.14644660940672616 -0.04505661367281265
0.15522972763146647 -0.04564562291520673
0.16422052257649067 -0.04617857177108635
0.17341357852311146 -0.04665905364993417
0.18280335791817703 -0.04709077838421762
0.19238420470968637 -0.04747723074347153
0.20215034775378343 -0.04782137289080543
0.2120959042910774 -0.04812541768425141
0.2222148834901989 -0.04839069259342285
0.23250119005645137 -0.04861760520514393
0.2429486279033891 -0.04880571162589278
0.2535509038851079 -0.048953879418895375
0.26430163158700104 -0.04906052789779878
0.27519433517269654 -0.04912392141402994
0.28622245328485874 -0.04914248634950728
0.29737934299750524 -0.049115120285764584
0.30865828381745486 -0.0490414624510489
0.320052481732506 -0.04892209798051506
0.33155507330389 -0.0487586744460201
0.3431591298005543 -0.048553916987687976
0.35485766137276875 -0.048311537505507644
0.36664362126255073 -0.048036042934383544
0.3785099100483679 -0.047732456783453385
0.3904493799215649 -0.04740597606270204
0.4024548389919357 -0.047061591749958734
0.41451905561984914 -0.04670370454362841
0.42663476277231926 -0.04633576849206695
0.43879466240039156 -0.04595999312308943
0.4509914298352198 -0.04557713009724614
0.46321771820016633 -0.045186363585849654
0.475466162836291 -0.04478531513002247
0.4877293857385438 -0.04437016440744451
0.4999999999999999 -0.04393587792632217
0.512270614261456 -0.043476528986904656
0.5245338371637088 -0.04298568503236704
0.5367822817998334 -0.04245683334930005
0.54900857016478 -0.0418838133824092
0.5612053375996082 -0.041261223886775056
0.5733652372276805 -0.04058477570894507
0.5854809443801506 -0.039851565894328464
0.5975451610080642 -0.03906025559443562
0.6095506200784349 -0.03821114227288539
0.6214900899516319 -0.037306125269364374
0.6333563787374491 -0.03634857213310259
0.645142338627231 -0.03534310057766109
0.6568408701994456 -0.034295296832947325
0.6684449266961098 -0.03321139512606279
0.6799475182674938 -0.03209794474544384
0.691341716182545 -0.03096149057451913
0.7026206570024947 -0.02980829026851497
0.713777546715141 -0.02864408672291278
0.7248056648273034 -0.027473948624888327
0.7356983684129987 -0.026302185269901735
0.746449096114892 -0.02513233508732426
0.7570513720966108 -0.02396722105821357
0.7674988099435485 -0.02280906096001306
0.7777851165098009 -0.021659616553359736
0.7879040957089227 -0.02052036369900782
0.7978496522462164 -0.019392665050839093
0.8076157952903136 -0.018277928334510453
0.8171966420818224 -0.01717773605403317
0.8265864214768883 -0.016093936406963917
0.8357794774235092 -0.015028689783463885
0.8447702723685334 -0.01398446998768599
0.8535533905932737 -0.012964023775927893
0.8621235414757333 -0.01197029603710657
0.8704755626774794 -0.01100633062691573
0.8786044232532422 -0.010075158311775164
0.8865052266813687 -0.009179683425164616
0.894173213813303 -0.00832257976762526
0.9016037657403225 -0.007506204195771872
0.9087924065757916 -0.006732533543865959
0.9157348061512727 -0.00600312736221628
0.9224267826248536 -0.005319115816969063
0.928864305000136 -0.004681209330079363
0.9350434955543556 -0.004089724440621331
0.9409606321741775 -0.003544619143350451
0.9466121505977576 -0.0030455307028473544
0.9519946465617215 -0.002591809631269684
0.9571048778517655 -0.0021825450248628316
0.9619397662556433 -0.0018165785576096014
0.9664963994173694 -0.0014925068445561882
0.9707720325915102 -0.0012086742974411933
0.9747640902965183 -0.0009631606930466649
0.9784701678661044 -0.0007537691938778881
0.98188803289772 -0.0005780213067934088
0.985015626597272 -0.00043316513661423946
0.9878510650192642 -0.00031620229088867477
0.9903926402016152 -0.00022393702395912264
0.9926388211944706 -0.00015304886853527905
0.9945882549823906 -0.00010018735406239938
0.9962397672993549 -6.208475397503419e-05
0.9975923633360985 -3.568044292555905e-05
0.998645228339345 -1.824865431339449e-05
0.9993977281025862 -7.520420783742168e-06
0.9998494093481021 -1.790383663329695e-06
1.0 0.0
