1.0 0.0
0.9998494093481021 2.673304607695158e-05
0.9993977281025862 0.00010687782024345172
0.998645228339345 0.00024026741046598792
0.9975923633360985 0.0004266118876016336
0.9962397672993549 0.0006654840059779711
0.9945882549823906 0.0009563052854903572
0.9926388211944706 0.0012983374191437066
0.9903926402016152 0.001690683886474452
0.9878510650192642 0.0021323057684241664
0.985015626597272 0.0026220541417382474
0.98188803289772 0.0031587192745365423
0.9784701678661044 0.003741094424597171
0.9747640902965183 0.004368049680531584
0.9707720325915102 0.0050386093117592325
0.9664963994173694 0.005752024797398323
0.9619397662556433 0.006507835302076919
0.9571048778517655 0.007305907966771481
0.9519946465617215 0.008146451969257089
0.9466121505977576 0.009030002738897392
0.9409606321741775 0.009957375728252362
0.9350434955543556 0.010929592407996624
0.928864305000136 0.01194778427500382
0.9224267826248536 0.013013083260179305
0.9157348061512727 0.01412650865562955
0.9087924065757916 0.01528886130523313
0.9016037657403225 0.01650063519955288
0.894173213813303 0.017761954811064185
0.8865052266813687 0.01907254367148347
0.8786044232532422 0.020431726133237453
0.8704755626774794 0.021838460374263235
0.8621235414757333 0.02329139695539423
0.8535533905932737 0.02478895407887198
0.8447702723685334 0.026329398526724078
0.8357794774235092 0.02791092037567589
0.8265864214768883 0.02953169014365137
0.8171966420818224 0.031189889007123342
0.8076157952903136 0.032883705952583275
0.7978496522462164 0.03461129984813289
0.7879040957089227 0.036370728981832356
0.7777851165098009 0.03815985508216028
0.7674988099435485 0.03997623267447961
0.7570513720966108 0.04181699735271702
0.746449096114892 0.04367876778873741
0.7356983684129987 0.045557575856228626
0.7248056648273034 0.04744883709618769
0.713777546715141 0.04934737008236851
0.7026206570024947 0.05124746842742593
0.691341716182545 0.05314302372177422
0.6799475182674938 0.0550276922267559
0.6684449266961098 0.056895093283759496
0.6568408701994456 0.05873902373256578
0.645142338627231 0.060553670615088165
0.6333563787374491 0.06233380435450582
0.6214900899516319 0.064074936504824
0.6095506200784349 0.0657734298880626
0.5975451610080642 0.06742655407926976
0.5854809443801506 0.06903248518369334
0.5733652372276805 0.07059025497463327
0.5612053375996082 0.0720996599810563
0.54900857016478 0.07356114533177185
0.5367822817998334 0.07497568050861643
0.5245338371637088 0.07634464426942172
0.512270614261456 0.07766973376447228
0.4999999999999999 0.078952908462419
0.4877293857385438 0.08019637337425467
0.475466162836291 0.08140259890539178
0.46321771820016633 0.08257436733318155
0.4509914298352198 0.08371482933438149
0.43879466240039156 0.0848275490794694
0.42663476277231926 0.0859165139372277
0.41451905561984914 0.08698608532803946
0.4024548389919357 0.08804087095091025
0.3904493799215649 0.08908550535350644
0.3785099100483679 0.09012433511769923
0.36664362126255073 0.09116101596409994
0.35485766137276875 0.09219804074578428
0.3431591298005543 0.09323622835521513
0.33155507330389 0.09427421273161952
0.320052481732506 0.09530797725985488
0.30865828381745486 0.09633048196966043
0.29737934299750524 0.09733142850688259
0.28622245328485874 0.0982972007264258
0.27519433517269654 0.09921100730094749
0.26430163158700104 0.10005323777161332
0.2535509038851079 0.10080202622184355
0.2429486279033891 0.10143399877349062
0.23250119005645137 0.10192516409367966
0.2222148834901989 0.10225189176453092
0.2120959042910774 0.10239191323655486
0.20215034775378343 0.10232527534969986
0.19238420470968637 0.1020351777782419
0.18280335791817703 0.10150863338207193
0.17341357852311146 0.10073690386391157
0.16422052257649067 0.09971568128799957
0.15522972763146647 0.09844500735226225
0.14644660940672616 0.09692894489281795
0.1378764585242665 0.09517503781298606
0.12952443732252045 0.09319361435502366
0.12139557674675777 0.09099700247794931
0.11349477331863145 0.08859873359071894
0.10582678618669683 0.08601281111407452
0.09839623425967753 0.08325311308784127
0.09120759342420814 0.08033298381204962
0.08426519384872727 0.0772650495190687
0.07757321737514639 0.07406126913183604
0.07113569499986394 0.07073320552504683
0.06495650444564427 0.06729247786127693
0.059039367825822475 0.06375133400927363
0.05338784940224234 0.060123266007806785
0.048005353438278275 0.05642358278431192
0.042895122148234655 0.05266985398435574
0.038060233744356575 0.0488821471434655
0.03350360058263052 0.045082997028534535
0.029227967408489597 0.04129706947422714
0.025235909703481607 0.03755051042021371
0.021529832133895532 0.03387000157125816
0.018111967102280024 0.030281574312844135
0.014984373402728013 0.02680926034829879
0.012148934980735715 0.023473678349193557
0.009607359798384785 0.02029066859532718
0.007361178805529334 0.017270090697594914
0.005411745017609493 0.014414892475584713
0.0037602327006450165 0.011720541254757064
0.0024076366639015356 0.009174883514653768
0.0013547716606548965 0.0067584670212091375
0.0006022718974137975 0.004445323996329784
0.00015059065189787502 0.002204177580912392
0.0 0.0
0.00015059065189787502 -0.0021286655778727675
0.0006022718974137975 -0.004238552600498242
0.0013547716606548965 -0.006311602421678732
0.0024076366639015356 -0.008331153203099514
0.0037602327006450165 -0.010282533829650223
0.005411745017609493 -0.012153540713383454
0.007361178805529334 -0.013934771572924547
0.009607359798384785 -0.015619800242509932
0.012148934980735715 -0.017205187538455603
0.014984373402728013 -0.01869033437160086
0.018111967102280024 -0.02007719381318529
0.021529832133895532 -0.021369867923531686
0.025235909703481607 -0.022574122175866008
0.029227967408489597 -0.023696854753587543
0.03350360058263052 -0.024745559572111688
0.038060233744356575 -0.025727820503952593
0.042895122148234655 -0.02665087012466331
0.048005353438278275 -0.027521239719827128
0.05338784940224234 -0.02834451885702432
0.059039367825822475 -0.029125233229556444
0.06495650444564427 -0.029866839503054878
0.07113569499986394 -0.030571826345906456
0.07757321737514639 -0.03124190246073588
0.08426519384872727 -0.03187824591399221
0.09120759342420814 -0.03248178488422476
0.09839623425967753 -0.033053478420345506
0.10582678618669683 -0.03359456700171907
0.11349477331863145 -0.03410676647828607
0.12139557674675777 -0.03459238498319925
0.12952443732252045 -0.035054350111305886
0.1378764585242665 -0.035496142365313496
0.14644660940672616 -0.03592163982841137
0.15522972763146647 -0.036334887452160014
0.16422052257649067 -0.03673981152579598
0.17341357852311146 -0.037139905202965076
0.18280335791817703 -0.03753791395279792
0.19238420470968637 -0.03793555022434109
0.20215034775378343 -0.03833326443965536
0.2120959042910774 -0.03873009485931832
0.2222148834901989 -0.03912361230016711
0.23250119005645137 -0.03950996770671214
0.2429486279033891 -0.039884041884533254
0.2535509038851079 -0.040239688056768745
0.26430163158700104 -0.040570050058525965
0.27519433517269654 -0.04086793262188612
0.28622245328485874 -0.04112619587757929
0.29737934299750524 -0.04133814427960674
0.30865828381745486 -0.04149788080447455
0.320052481732506 -0.041600600419025906
0.33155507330389 -0.04164280216149636
0.3431591298005543 -0.04162240625628826
0.35485766137276875 -0.041538770849783684
0.36664362126255073 -0.04139261148362847
0.3785099100483679 -0.041185834555566785
0.3904493799215649 -0.04092130303716223
0.4024548389919357 -0.040602558006953386
0.41451905561984914 -0.04023352265947521
0.42663476277231926 -0.03981821610702868
0.43879466240039156 -0.039360502465919225
0.4509914298352198 -0.0388638966004806
0.46321771820016633 -0.03833144188174829
0.475466162836291 -0.037765667968633926
0.4877293857385438 -0.03716862862175554
0.4999999999999999 -0.036542011653322035
0.512270614261456 -0.03588730602850773
0.5245338371637088 -0.03520600551435438
0.5367822817998334 -0.034499824634129296
0.54900857016478 -0.03377090135770737
0.5612053375996082 -0.03302196205878384
0.5733652372276805 -0.03225642769211532
0.5854809443801506 -0.031478445571404154
0.5975451610080642 -0.030692838062096012
0.6095506200784349 -0.029904967309213146
0.6214900899516319 -0.02912052308767535
0.6333563787374491 -0.028345248269080272
0.645142338627231 -0.027584622576519984
0.6568408701994456 -0.02684352969396412
0.6684449266961098 -0.026125935018870314
0.6799475182674938 -0.025434601203124334
0.691341716182545 -0.024770866137922152
0.7026206570024947 -0.02413450343087381
0.713777546715141 -0.023523679111574245
0.7248056648273034 -0.022935010843497573
0.7356983684129987 -0.022363727966372985
0.746449096114892 -0.02180392292788225
0.7570513720966108 -0.02124887774093151
0.7674988099435485 -0.02069144358988483
0.7777851165098009 -0.020124448036810513
0.7879040957089227 -0.01954110270639885
0.7978496522462164 -0.018935384925165676
0.8076157952903136 -0.01830236943557305
0.8171966420818224 -0.017638490703720144
0.8265864214768883 -0.016941722053888966
0.8357794774235092 -0.016211664361278414
0.8447702723685334 -0.015449543737726923
0.8535533905932737 -0.014658123985734137
0.8621235414757333 -0.013841545066337476
0.8704755626774794 -0.013005103023936053
0.8786044232532422 -0.012154989470470537
0.8865052266813687 -0.011298009741606082
0.894173213813303 -0.010441298244676817
0.9016037657403225 -0.00959204751181897
0.9087924065757916 -0.008757264358961682
0.9157348061512727 -0.007943562719849199
0.9224267826248536 -0.007156998599619442
0.928864305000136 -0.006402948593643101
0.9350434955543556 -0.005686029915241131
0.9409606321741775 -0.0050100571588136645
0.9466121505977576 -0.004378029274269699
0.9519946465617215 -0.003792139507144275
0.9571048778517655 -0.0032538013116063425
0.9619397662556433 -0.002763684311977112
0.9664963994173694 -0.002321756033889581
0.9707720325915102 -0.0019273270621483001
0.9747640902965183 -0.001579099209238659
0.9784701678661044 -0.0012752179193111356
0.98188803289772 -0.001013331263996709
0.985015626597272 -0.0007906583628148204
0.9878510650192642 -0.0006040698280882671
0.9903926402016152 -0.00045018193284225024
0.9926388211944706 -0.0003254647576288834
0.9945882549823906 -0.00022636278510438726
0.9962397672993549 -0.0001494245196238644
0.9975923633360985 -9.14359668848953e-05
0.998645228339345 -4.955145218659017e-05
0.9993977281025862 -2.1414475825944352e-05
0.9998494093481021 -5.261222729670808e-06
1.0 0.0
