1.0 0.0
0.9998494093481021 2.7338449577399788e-05
0.9993977281025862 0.00010924982946553846
0.998645228339345 0.00024542166171758877
0.9975923633360985 0.00043533206882664666
0.9962397672993549 0.0006782508878247627
0.9945882549823906 0.0009732461898417819
0.9926388211944706 0.0013192000457760778
0.9903926402016152 0.0017148370567519353
0.9878510650192642 0.002158768070532028
0.985015626597272 0.0026495497336194228
0.98188803289772 0.00318575829034344
0.9784701678661044 0.003766073622713371
0.9747640902965183 0.004389367261668238
0.9707720325915102 0.005054786327882653
0.9664963994173694 0.005761824373450762
0.9619397662556433 0.006510370107572408
0.9571048778517655 0.007300726099302907
0.9519946465617215 0.008133591726050183
0.9466121505977576 0.009010007710713057
0.9409606321741775 0.009931263275320882
0.9350434955543556 0.01089877085533315
0.928864305000136 0.011913917036817184
0.9224267826248536 0.012977901467696867
0.9157348061512727 0.01409157757286767
0.9087924065757916 0.015255309686057613
0.9016037657403225 0.01646886054666139
0.894173213813303 0.017731321000391428
0.8865052266813687 0.01904109035152286
0.8786044232532422 0.020395911451213625
0.8704755626774794 0.02179295969569731
0.8621235414757333 0.023228980145313667
0.8535533905932737 0.024700462471729013
0.8447702723685334 0.02620383986672906
0.8357794774235092 0.027735695777512552
0.8265864214768883 0.029292961608267488
0.8171966420818224 0.030873089417302036
0.8076157952903136 0.03247418603847077
0.7978496522462164 0.03409509869513085
0.7879040957089227 0.03573544664918712
0.7777851165098009 0.037395598242678664
0.7674988099435485 0.03907659731855418
0.7570513720966108 0.04078004695406391
0.746449096114892 0.042507961295909426
0.7356983684129987 0.04426259777919004
0.7248056648273034 0.04604628204017026
0.713777546715141 0.047861236476285714
0.7026206570024947 0.04970942091893092
0.691341716182545 0.0515923906609797
0.6799475182674938 0.05351117361046319
0.6684449266961098 0.05546616514471953
0.6568408701994456 0.0574570368004035
0.645142338627231 0.05948265363853819
0.6333563787374491 0.061540995200622534
0.6214900899516319 0.06362907646122022
0.6095506200784349 0.06574286791946671
0.5975451610080642 0.0678772175985178
0.5854809443801506 0.07002578172350948
0.5733652372276805 0.07218097461199778
0.5612053375996082 0.0743339511981685
0.54900857016478 0.0764746370416921
0.5367822817998334 0.0785918201976621
0.5245338371637088 0.08067331670227107
0.512270614261456 0.08270621666655037
0.4999999999999999 0.0846772113449692
0.4877293857385438 0.08657299359406619
0.475466162836291 0.08838071561347492
0.46321771820016633 0.09008847966987478
0.4509914298352198 0.09168583060070526
0.43879466240039156 0.0931642141860143
0.42663476277231926 0.09451736371427555
0.41451905561984914 0.09574157874976617
0.4024548389919357 0.0968358654070487
0.3904493799215649 0.09780191615489983
0.3785099100483679 0.09864391873592931
0.36664362126255073 0.09936819728830051
0.35485766137276875 0.09998270301639235
0.3431591298005543 0.10049638544344565
0.33155507330389 0.10091848702779906
0.320052481732506 0.10125781248264347
0.30865828381745486 0.10152202850105771
0.29737934299750524 0.10171704911020674
0.28622245328485874 0.10184655636545295
0.27519433517269654 0.10191169584114881
0.26430163158700104 0.10191097215789474
0.2535509038851079 0.10184035281063496
0.2429486279033891 0.10169357035645037
0.23250119005645137 0.1014625952965939
0.2222148834901989 0.10113823647338237
0.2120959042910774 0.10071081407238594
0.20215034775378343 0.1001708436270741
0.19238420470968637 0.09950966856156476
0.18280335791817703 0.09871998401745127
0.17341357852311146 0.09779620563459752
0.16422052257649067 0.09673465265233311
0.15522972763146647 0.09553353371815736
0.14644660940672616 0.09419274430913022
0.1378764585242665 0.09271350465316938
0.12952443732252045 0.09109788444160827
0.12139557674675777 0.08934827360551817
0.11349477331863145 0.08746686553010213
0.10582678618669683 0.08545521939498667
0.09839623425967753 0.08331396160044864
0.09120759342420814 0.0810426729193433
0.08426519384872727 0.07863998922938915
0.07757321737514639 0.07610392114532416
0.07113569499986394 0.07343237373436584
0.06495650444564427 0.07062382414423786
0.059039367825822475 0.06767809478791696
0.05338784940224234 0.06459714486851698
0.048005353438278275 0.06138579519507259
0.042895122148234655 0.05805230150652049
0.038060233744356575 0.054608700201818294
0.03350360058263052 0.05107086697507365
0.029227967408489597 0.047458252098366994
0.025235909703481607 0.0437932840227989
0.021529832133895532 0.04010046311059676
0.018111967102280024 0.03640519691152942
0.014984373402728013 0.03273245466880291
0.012148934980735715 0.029105339130799577
0.009607359798384785 0.025543686184964744
0.007361178805529334 0.022062805935815583
0.005411745017609493 0.018672472068803424
0.0037602327006450165 0.015376250022332939
0.0024076366639015356 0.012171229859758787
0.0013547716606548965 0.009048198800394891
0.0006022718974137975 0.0059922537474407095
0.00015059065189787502 0.0029838188259866867
0.0 0.0
0.00015059065189787502 -0.0023466911823929763
0.0006022718974137975 -0.004671772635138219
0.0013547716606548965 -0.0069545686826531184
0.0024076366639015356 -0.009176214476052696
0.0037602327006450165 -0.011320422181375382
0.005411745017609493 -0.013374090945949853
0.007361178805529334 -0.015327725797013476
0.009607359798384785 -0.017175643755613746
0.012148934980735715 -0.0189159599577514
0.014984373402728013 -0.020550361409163935
0.018111967102280024 -0.022083690087306863
0.021529832133895532 -0.02352336943295841
0.025235909703481607 -0.024878717970551648
0.029227967408489597 -0.026160200188989166
0.03350360058263052 -0.027378667482993096
0.038060233744356575 -0.028544640760579974
0.042895122148234655 -0.02966768141731972
0.048005353438278275 -0.030755889192286338
0.05338784940224234 -0.031815554626412224
0.059039367825822475 -0.03285098130326197
0.06495650444564427 -0.03386447974886834
0.07113569499986394 -0.03485652183003519
0.07757321737514639 -0.0358260327130276
0.08426519384872727 -0.03677078780815184
0.09120759342420814 -0.03768787533135729
0.09839623425967753 -0.038574181628834775
0.10582678618669683 -0.03942685643324396
0.11349477331863145 -0.04024371866759216
0.12139557674675777 -0.04102356992960515
0.12952443732252045 -0.041766391779526464
0.1378764585242665 -0.04247341363138384
0.14644660940672616 -0.04314704950139632
0.15522972763146647 -0.0437907131384152
0.16422052257649067 -0.04440853122201716
0.17341357852311146 -0.045004982543164505
0.18280335791817703 -0.04558449673344819
0.19238420470968637 -0.04615104876128999
0.20215034775378343 -0.046707784905568116
0.2120959042910774 -0.047256712357215326
0.2222148834901989 -0.04779847835337622
0.23250119005645137 -0.04833225640637476
0.2429486279033891 -0.048855747511636266
0.2535509038851079 -0.04936529406913891
0.26430163158700104 -0.049856094524345675
0.27519433517269654 -0.05032249826976079
0.28622245328485874 -0.05075835386779028
0.29737934299750524 -0.051157379695999296
0.30865828381745486 -0.05151352498448372
0.320052481732506 -0.05182129096530973
0.33155507330389 -0.05207598628302202
0.3431591298005543 -0.052273897484521985
0.35485766137276875 -0.05241236368299539
0.36664362126255073 -0.052489753604464465
0.3785099100483679 -0.05250535234094232
0.3904493799215649 -0.05245917342407973
0.4024548389919357 -0.05235171855373801
0.41451905561984914 -0.05218371187250954
0.42663476277231926 -0.05195583767681491
0.43879466240039156 -0.051668509740136565
0.4509914298352198 -0.05132169708410121
0.46321771820016633 -0.05091482539580751
0.475466162836291 -0.0504467658881283
0.4877293857385438 -0.04991591492261283
0.4999999999999999 -0.049320358943035554
0.512270614261456 -0.04865811100303003
0.5245338371637088 -0.047927398162695
0.5367822817998334 -0.04712697390589751
0.54900857016478 -0.04625642694592481
0.5612053375996082 -0.04531645758086639
0.5733652372276805 -0.044309095136042496
0.5854809443801506 -0.04323783476121332
0.5975451610080642 -0.04210767849870232
0.6095506200784349 -0.04092507350172129
0.6214900899516319 -0.03969774884687523
0.6333563787374491 -0.03843446079374001
0.645142338627231 -0.037144663865154706
0.6568408701994456 -0.03583813111253761
0.6684449266961098 -0.03452455089591463
0.6799475182674938 -0.033213129141737796
0.691341716182545 -0.03191222524852806
0.7026206570024947 -0.030629046712576366
0.713777546715141 -0.029369422465161374
0.7248056648273034 -0.028137668336879678
0.7356983684129987 -0.026936550599290048
0.746449096114892 -0.025767345844402375
0.7570513720966108 -0.02462998821155564
0.7674988099435485 -0.023523288759673515
0.7777851165098009 -0.022445207096836683
0.7879040957089227 -0.021393152549841206
0.7978496522462164 -0.02036429133597902
0.8076157952903136 -0.01935583735366256
0.8171966420818224 -0.018365307128486674
0.8265864214768883 -0.017390723779330316
0.8357794774235092 -0.016430760139239328
0.8447702723685334 -0.015484816852382115
0.8535533905932737 -0.014553036838181498
0.8621235414757333 -0.013636262476936906
0.8704755626774794 -0.01273594582571455
0.8786044232532422 -0.011854024838374088
0.8865052266813687 -0.010992779800598353
0.894173213813303 -0.010154684008293564
0.9016037657403225 -0.009342261262140869
0.9087924065757916 -0.008557960283795078
0.9157348061512727 -0.007804053023257117
0.9224267826248536 -0.007082560406965215
0.928864305000136 -0.006395205756162711
0.9350434955543556 -0.005743393228409521
0.9409606321741775 -0.005128206470434032
0.9466121505977576 -0.004550421387809965
0.9519946465617215 -0.004010526594801797
0.9571048778517655 -0.003508745653558025
0.9619397662556433 -0.0030450564940481054
0.9664963994173694 -0.0026192051966758283
0.9707720325915102 -0.0022307133438758298
0.9747640902965183 -0.001878880118255002
0.9784701678661044 -0.001562781977599886
0.98188803289772 -0.001281273857802431
0.985015626597272 -0.0010329963051151838
0.9878510650192642 -0.0008163926698548477
0.9903926402016152 -0.0006297395477355712
0.9926388211944706 -0.00047119216009642716
0.9945882549823906 -0.000338844515438975
0.9962397672993549 -0.00023080222955022578
0.9975923633360985 -0.00014526405098440903
0.998645228339345 -8.060667667822788e-05
0.9993977281025862 -3.54665378508589e-05
0.9998494093481021 -8.812010704669472e-06
1.0 0.0
