1.0 0.0
0.9998494093481021 2.2108785824953536e-05
0.9993977281025862 8.84851774770716e-05
0.998645228339345 0.00019927461921596815
0.9975923633360985 0.00035470490742542626
0.9962397672993549 0.0005550673342215321
0.9945882549823906 0.0008006958913133963
0.9926388211944706 0.0010919490059684402
0.9903926402016152 0.0014291981242739607
0.9878510650192642 0.0018128265160668336
0.985015626597272 0.0022432400525693326
0.98188803289772 0.0027208896089003557
0.9784701678661044 0.0032463024564902947
0.9747640902965183 0.0038201178661969155
0.9707720325915102 0.004443120473357394
0.9664963994173694 0.005116264048607943
0.9619397662556433 0.005840678375569047
0.9571048778517655 0.006617653044704016
0.9519946465617215 0.00744859408428851
0.9466121505977576 0.00833495228188239
0.9409606321741775 0.009278125501100009
0.9350434955543556 0.010279340879020509
0.928864305000136 0.011339526065244167
0.9224267826248536 0.012459181207132733
0.9157348061512727 0.013638264829171139
0.9087924065757916 0.014876106836423326
0.9016037657403225 0.016171360475038227
0.894173213813303 0.01752200225375814
0.8865052266813687 0.01892538478381457
0.8786044232532422 0.020378342595353968
0.8704755626774794 0.021877345716823562
0.8621235414757333 0.0234186907054128
0.8535533905932737 0.0249987144440326
0.8447702723685334 0.02661401287056004
0.8357794774235092 0.02826164526257815
0.8265864214768883 0.029939304990915936
0.8171966420818224 0.0316454398144589
0.8076157952903136 0.03337930865550811
0.7978496522462164 0.0351409670228908
0.7879040957089227 0.03693117934145002
0.7777851165098009 0.038751262804435894
0.7674988099435485 0.04060287335699164
0.7570513720966108 0.04248774944499218
0.746449096114892 0.04440743272396291
0.7356983684129987 0.04636298667308649
0.7248056648273034 0.04835473384906696
0.713777546715141 0.050382030405199056
0.7026206570024947 0.05244309275865334
0.691341716182545 0.05453488635468533
0.6799475182674938 0.05665308091508821
0.6684449266961098 0.05879207099295683
0.6568408701994456 0.06094505569529592
0.645142338627231 0.06310416760112243
0.6333563787374491 0.06526063856846434
0.6214900899516319 0.06740498946778727
0.6095506200784349 0.06952723186413554
0.5975451610080642 0.07161707204516082
0.5854809443801506 0.07366411112404099
0.5733652372276805 0.07565803867252824
0.5612053375996082 0.0775888208390359
0.54900857016478 0.07944688658070566
0.5367822817998334 0.08122331699002765
0.5245338371637088 0.08291004240202424
0.512270614261456 0.08450004992829817
0.4999999999999999 0.08598760043146834
0.4877293857385438 0.08736844912664594
0.475466162836291 0.08864005858646341
0.46321771820016633 0.08980178769182195
0.4509914298352198 0.0908550358335057
0.43879466240039156 0.09180331921495904
0.42663476277231926 0.09265225608066853
0.41451905561984914 0.09340944051465111
0.4024548389919357 0.09408419023542852
0.3904493799215649 0.09468716233165056
0.3785099100483679 0.09522984156430518
0.36664362126255073 0.09572391782464204
0.35485766137276875 0.0961805814612801
0.3431591298005543 0.09660977622243638
0.33155507330389 0.09701945824087242
0.320052481732506 0.09741491469141458
0.30865828381745486 0.09779819660670608
0.29737934299750524 0.09816771635221534
0.28622245328485874 0.09851805139440743
0.27519433517269654 0.09883998269208204
0.26430163158700104 0.0991207792203727
0.2535509038851079 0.09934472113081025
0.2429486279033891 0.09949383449135481
0.23250119005645137 0.09954879222385432
0.2222148834901989 0.09948992053352625
0.2120959042910774 0.09929823938300113
0.20215034775378343 0.09895646061980956
0.19238420470968637 0.0984498689410352
0.18280335791817703 0.0977670191007198
0.17341357852311146 0.09690019713262542
0.16422052257649067 0.09584561276339199
0.15522972763146647 0.09460331299527393
0.14644660940672616 0.093176831025233
0.1378764585242665 0.09157260801786346
0.12952443732252045 0.08979924555018791
0.12139557674675777 0.08786666180621652
0.11349477331863145 0.08578523325118435
0.10582678618669683 0.0835650045813994
0.09839623425967753 0.0812150429491086
0.09120759342420814 0.07874299827493275
0.08426519384872727 0.0761549110793254
0.07757321737514639 0.0734552845126029
0.07113569499986394 0.07064741043073727
0.06495650444564427 0.06773391299849298
0.059039367825822475 0.06471744996614973
0.05338784940224234 0.06160149379318877
0.048005353438278275 0.05839110405178503
0.042895122148234655 0.055093600251150544
0.038060233744356575 0.0517190508118718
0.03350360058263052 0.048280508974924675
0.029227967408489597 0.04479394871913152
0.025235909703481607 0.04127788133012842
0.021529832133895532 0.0377526636140648
0.018111967102280024 0.03423953906385554
0.014984373402728013 0.030759480694817837
0.012148934980735715 0.02733192611895573
0.009607359798384785 0.023973509546863832
0.007361178805529334 0.020696900305759745
0.005411745017609493 0.017509852493692475
0.0037602327006450165 0.014414555817743022
0.0024076366639015356 0.011407354650856072
0.0013547716606548965 0.00847887284986892
0.0006022718974137975 0.005614548491589274
0.00015059065189787502 0.002795548376108694
0.0 0.0
0.00015059065189787502 -0.002017753663489227
0.0006022718974137975 -0.004018554168042461
0.0013547716606548965 -0.005986174542795628
0.0024076366639015356 -0.007905792469650114
0.0037602327006450165 -0.009764576769137617
0.005411745017609493 -0.011552144328785279
0.007361178805529334 -0.013260859282262125
0.009607359798384785 -0.014885957643978428
0.012148934980735715 -0.01642549315963033
0.014984373402728013 -0.017880112913151176
0.018111967102280024 -0.01925268328464156
0.021529832133895532 -0.02054779728902856
0.025235909703481607 -0.02177120237269561
0.029227967408489597 -0.022929192818761945
0.03350360058263052 -0.024028012651249153
0.038060233744356575 -0.025073313227787636
0.042895122148234655 -0.026069704724666732
0.048005353438278275 -0.027020432850575038
0.05338784940224234 -0.027927201997217686
0.059039367825822475 -0.028790154436022185
0.06495650444564427 -0.029608002997840457
0.07113569499986394 -0.030378302862295408
0.07757321737514639 -0.031097837535788046
0.08426519384872727 -0.031763085608042446
0.09120759342420814 -0.03237072907592613
0.09839623425967753 -0.032918161324806045
0.10582678618669683 -0.03340395343030382
0.11349477331863145 -0.03382824119740788
0.12139557674675777 -0.034193001950750715
0.12952443732252045 -0.03450219897039126
0.1378764585242665 -0.034761781898761605
0.14644660940672616 -0.03497954258019998
0.15522972763146647 -0.0351648367442976
0.16422052257649067 -0.035328191846351956
0.17341357852311146 -0.03548082946929823
0.18280335791817703 -0.03563413636830632
0.19238420470968637 -0.035799121106214325
0.20215034775378343 -0.03598589312736105
0.2120959042910774 -0.03620319813914898
0.2222148834901989 -0.03645803814147591
0.23250119005645137 -0.03675539689628973
0.2429486279033891 -0.03709808275254932
0.2535509038851079 -0.037486691321283
0.26430163158700104 -0.03791968134349839
0.27519433517269654 -0.038393548978667716
0.28622245328485874 -0.03890307932136733
0.29737934299750524 -0.03944164972017931
0.30865828381745486 -0.04000155771105223
0.320052481732506 -0.04057434714307352
0.33155507330389 -0.04115110919408893
0.3431591298005543 -0.04172274006231511
0.35485766137276875 -0.04228014362123276
0.36664362126255073 -0.04281437456318301
0.3785099100483679 -0.04331672480211039
0.3904493799215649 -0.04377876244155172
0.4024548389919357 -0.04419233780460109
0.41451905561984914 -0.044549574371963954
0.42663476277231926 -0.0448428636711128
0.43879466240039156 -0.045064882105836854
0.4509914298352198 -0.04520864453416262
0.46321771820016633 -0.04526760442527652
0.475466162836291 -0.04523580416065665
0.4877293857385438 -0.04510807212683003
0.4999999999999999 -0.04488025637995191
0.512270614261456 -0.04454947854910675
0.5245338371637088 -0.04411438692281121
0.5367822817998334 -0.04357538484162858
0.54900857016478 -0.04293480993336277
0.5612053375996082 -0.04219704150226865
0.5733652372276805 -0.041368517425497776
0.5854809443801506 -0.04045764791078064
0.5975451610080642 -0.039474620935612784
0.6095506200784349 -0.03843110248542561
0.6214900899516319 -0.03733984311856793
0.6333563787374491 -0.036214210173564826
0.645142338627231 -0.035067671412040896
0.6568408701994456 -0.033913260482781024
0.6684449266961098 -0.03276305688513173
0.6799475182674938 -0.031627712888959686
0.691341716182545 -0.030516057136649205
0.7026206570024947 -0.029434799628739374
0.713777546715141 -0.02838835589177229
0.7248056648273034 -0.027378799913598997
0.7356983684129987 -0.026405946580353
0.746449096114892 -0.025467555576255796
0.7570513720966108 -0.024559640707696864
0.7674988099435485 -0.023676862001261536
0.7777851165098009 -0.022812973183714346
0.7879040957089227 -0.02196129459151015
0.7978496522462164 -0.021115181296231564
0.8076157952903136 -0.020268458191406727
0.8171966420818224 -0.01941579770341583
0.8265864214768883 -0.018553021249839832
0.8357794774235092 -0.017677312048220567
0.8447702723685334 -0.016787333794259854
0.8535533905932737 -0.015883256495258822
0.8621235414757333 -0.014966696825923354
0.8704755626774794 -0.014040585328836404
0.8786044232532422 -0.01310897630040547
0.8865052266813687 -0.012176818125348914
0.894173213813303 -0.011249702145426529
0.9016037657403225 -0.010333607013971187
0.9087924065757916 -0.009434653162157256
0.9157348061512727 -0.008558878839213782
0.9224267826248536 -0.007712045587188577
0.928864305000136 -0.006899477374883394
0.9350434955543556 -0.006125934310681112
0.9409606321741775 -0.00539551917256887
0.9466121505977576 -0.004711613129800113
0.9519946465617215 -0.004076836066644294
0.9571048778517655 -0.0034930268244780694
0.9619397662556433 -0.0029612393232655294
0.9664963994173694 -0.0024817516978246877
0.9707720325915102 -0.002054087029897412
0.9747640902965183 -0.0016770457005889424
0.9784701678661044 -0.001348750574832099
0.98188803289772 -0.001066706955020944
0.985015626597272 -0.0008278793724083882
0.9878510650192642 -0.0006287867765561453
0.9903926402016152 -0.0004656165794769994
0.9926388211944706 -0.00033435643924504654
0.9945882549823906 -0.00023094082055072782
0.9962397672993549 -0.00015140748081378426
0.9975923633360985 -9.205734591694814e-05
0.998645228339345 -4.96099871250077e-05
0.9993977281025862 -2.134627217878497e-05
0.9998494093481021 -5.229852812613134e-06
1.0 0.0
