1.0 0.0
0.9998494093481021 2.4183004180069595e-05
0.9993977281025862 9.675375596510097e-05
0.998645228339345 0.00021777406670938466
0.9975923633360985 0.0003873364024438165
0.9962397672993549 0.000605550725909161
0.9945882549823906 0.0008725309527594962
0.9926388211944706 0.0011883848812525616
0.9903926402016152 0.0015532112684851845
0.9878510650192642 0.0019671068389980665
0.985015626597272 0.0024301845184204625
0.98188803289772 0.002942602275789191
0.9784701678661044 0.00350459989491491
0.9747640902965183 0.004116539077357558
0.9707720325915102 0.0047789408051161905
0.9664963994173694 0.005492513115310928
0.9619397662556433 0.006258162537868923
0.9571048778517655 0.007076983489429831
0.9519946465617215 0.00795022184944336
0.9466121505977576 0.008879211593332657
0.9409606321741775 0.00986528644278048
0.9350434955543556 0.010909671659460295
0.928864305000136 0.012013363966448412
0.9224267826248536 0.013177009754586291
0.9157348061512727 0.01440079290333766
0.9087924065757916 0.01568434350428241
0.9016037657403225 0.01702667744190541
0.894173213813303 0.018426174233379666
0.8865052266813687 0.019880596979071557
0.8786044232532422 0.021387154081532238
0.8704755626774794 0.022942598000454017
0.8621235414757333 0.02454335221813766
0.8535533905932737 0.02618565427777993
0.8447702723685334 0.0278657006411119
0.8357794774235092 0.0295797784890085
0.8265864214768883 0.03132437059605304
0.8171966420818224 0.03309622200342455
0.8076157952903136 0.034892361165736026
0.7978496522462164 0.036710073163638134
0.7879040957089227 0.03854682793634259
0.7777851165098009 0.04040017170713242
0.7674988099435485 0.042267594255152086
0.7570513720966108 0.04414638789561353
0.746449096114892 0.04603351556106833
0.7356983684129987 0.047925504998518186
0.7248056648273034 0.04981838378996671
0.713777546715141 0.05170766586532483
0.7026206570024947 0.05358839480740108
0.691341716182545 0.055455243114155825
0.6799475182674938 0.05730266035337192
0.6684449266961098 0.05912505752083178
0.6568408701994456 0.060917010548778155
0.645142338627231 0.0626734633366455
0.6333563787374491 0.06438991023204982
0.6214900899516319 0.06606253968447152
0.6095506200784349 0.06768832468131676
0.5975451610080642 0.06926505116580563
0.5854809443801506 0.07079128233045094
0.5733652372276805 0.07226626373518132
0.5612053375996082 0.07368978080703407
0.54900857016478 0.07506198565660104
0.5367822817998334 0.0763832136302009
0.5245338371637088 0.07765381113950777
0.512270614261456 0.0788739948648418
0.4999999999999999 0.08004375850028422
0.4877293857385438 0.08116283717822503
0.475466162836291 0.08223073221988562
0.46321771820016633 0.08324679074720731
0.4509914298352198 0.08421032691044879
0.43879466240039156 0.08512076498995974
0.42663476277231926 0.08597778027016623
0.41451905561984914 0.08678141200179167
0.4024548389919357 0.0875321243170352
0.3904493799215649 0.08823079564928028
0.3785099100483679 0.08887862467873371
0.36664362126255073 0.08947695038265495
0.35485766137276875 0.09002699443888595
0.3431591298005543 0.09052954485583557
0.33155507330389 0.0909846090588598
0.320052481732506 0.09139107159921074
0.30865828381745486 0.09174639521509384
0.29737934299750524 0.09204640352869335
0.28622245328485874 0.0922851789747401
0.27519433517269654 0.09245510084104659
0.26430163158700104 0.09254703622470006
0.2535509038851079 0.0925506823357477
0.2429486279033891 0.0924550432873042
0.23250119005645137 0.09224900984778432
0.2222148834901989 0.09192199816915703
0.2120959042910774 0.09146459467243805
0.20215034775378343 0.09086915019457796
0.19238420470968637 0.09013026787219931
0.18280335791817703 0.08924513622332411
0.17341357852311146 0.08821367108564689
0.16422052257649067 0.08703844652292166
0.15522972763146647 0.08572441408311698
0.14644660940672616 0.08427843009198058
0.1378764585242665 0.0827086300147102
0.12952443732252045 0.0810237053430916
0.12139557674675777 0.07923215019750453
0.11349477331863145 0.07734155049628082
0.10582678618669683 0.07535798730859707
0.09839623425967753 0.07328561769141205
0.09120759342420814 0.07112648142928356
0.08426519384872727 0.0688805618299205
0.07757321737514639 0.06654610483543366
0.07113569499986394 0.06412017536954852
0.06495650444564427 0.061599405457561894
0.059039367825822475 0.05898086762631263
0.05338784940224234 0.05626299157390295
0.048005353438278275 0.053446433793692474
0.042895122148234655 0.05053480980763272
0.038060233744356575 0.047535207214920695
0.03350360058263052 0.04445841438769952
0.029227967408489597 0.04131882305656511
0.025235909703481607 0.038133991254011956
0.021529832133895532 0.034923883642194065
0.018111967102280024 0.03170983637427404
0.014984373402728013 0.028513320527331697
0.012148934980735715 0.025354599233919684
0.009607359798384785 0.022251386843809364
0.007361178805529334 0.019217622367848856
0.005411745017609493 0.016262463522027232
0.0037602327006450165 0.013389592227986639
0.0024076366639015356 0.010596898642123433
0.0013547716606548965 0.007876580664241616
0.0006022718974137975 0.005215662008394987
0.00015059065189787502 0.002596897264324534
0.0 0.0
0.00015059065189787502 -0.0022401694040013564
0.0006022718974137975 -0.004457553514724242
0.0013547716606548965 -0.006630199501243471
0.0024076366639015356 -0.008737774500296468
0.0037602327006450165 -0.010762266137543736
0.005411745017609493 -0.01268855968877733
0.007361178805529334 -0.014504863474305314
0.009607359798384785 -0.016202963800567072
0.012148934980735715 -0.017778301546794852
0.014984373402728013 -0.01922987358135343
0.018111967102280024 -0.020559972807312022
0.021529832133895532 -0.021773790046949234
0.025235909703481607 -0.022878908543361342
0.029227967408489597 -0.02388472708991754
0.03350360058263052 -0.02480185037921051
0.038060233744356575 -0.02564148497737102
0.042895122148234655 -0.02641487646978659
0.048005353438278275 -0.02713281808173665
0.05338784940224234 -0.02780525391805455
0.059039367825822475 -0.028440991492278016
0.06495650444564427 -0.029047529119032845
0.07113569499986394 -0.029630994748279838
0.07757321737514639 -0.030196184627126903
0.08426519384872727 -0.03074668340516241
0.09120759342420814 -0.03128504244512193
0.09839623425967753 -0.031812990487526116
0.10582678618669683 -0.032331650579233796
0.11349477331863145 -0.03284173924430463
0.12139557674675777 -0.03334372799057246
0.12952443732252045 -0.03383795297676647
0.1378764585242665 -0.034324665451122706
0.14644660940672616 -0.03480402276884566
0.15522972763146647 -0.03527602673161686
0.16422052257649067 -0.035740422028615
0.17341357852311146 -0.036196572143851524
0.18280335791817703 -0.0366433328136241
0.19238420470968637 -0.03707894372765654
0.20215034775378343 -0.037500957619261636
0.2120959042910774 -0.037906222333579015
0.2222148834901989 -0.03829092623430853
0.23250119005645137 -0.03865071090025319
0.2429486279033891 -0.03898084807779429
0.2535509038851079 -0.039276470956897555
0.26430163158700104 -0.03953284368777092
0.27519433517269654 -0.039745648252636635
0.28622245328485874 -0.03991126483518418
0.29737934299750524 -0.04002702101003818
0.30865828381745486 -0.040091386533752514
0.320052481732506 -0.04010409417810624
0.33155507330389 -0.04006617262403418
0.3431591298005543 -0.03997988446910734
0.35485766137276875 -0.0398485702918013
0.36664362126255073 -0.03967640777312075
0.3785099100483679 -0.03946810238532793
0.3904493799215649 -0.03922853244103434
0.4024548389919357 -0.038962375775199995
0.41451905561984914 -0.03867374758103569
0.42663476277231926 -0.03836587870356162
0.43879466240039156 -0.03804086099141108
0.4509914298352198 -0.03769948131653099
0.46321771820016633 -0.037341158993439164
0.475466162836291 -0.036963993133807285
0.4877293857385438 -0.03656491764656001
0.4999999999999999 -0.03613995288538328
0.512270614261456 -0.035684535094512394
0.5245338371637088 -0.035193898477650205
0.5367822817998334 -0.03466348045043436
0.54900857016478 -0.034089318792310384
0.5612053375996082 -0.033468410137766316
0.5733652372276805 -0.03279900246659471
0.5854809443801506 -0.03208079968074528
0.5975451610080642 -0.03131506351625132
0.6095506200784349 -0.030504606312942203
0.6214900899516319 -0.02965367684376706
0.6333563787374491 -0.028767749755605292
0.645142338627231 -0.027853236499838143
0.6568408701994456 -0.026917141338979194
0.6684449266961098 -0.02596668966122549
0.6799475182674938 -0.02500895716092055
0.691341716182545 -0.0240505273987947
0.7026206570024947 -0.023097201996930772
0.713777546715141 -0.022153782592955376
0.7248056648273034 -0.021223937171953224
0.7356983684129987 -0.020310156113566843
0.746449096114892 -0.019413795884282575
0.7570513720966108 -0.01853520140820439
0.7674988099435485 -0.017673892332674912
0.7777851165098009 -0.016828794119723035
0.7879040957089227 -0.01599849243838832
0.7978496522462164 -0.015181488829078769
0.8076157952903136 -0.014376437002077285
0.8171966420818224 -0.013582342193609171
0.8265864214768883 -0.012798710370265696
0.8357794774235092 -0.012025639281812621
0.8447702723685334 -0.011263848896877444
0.8535533905932737 -0.010514654097499765
0.8621235414757333 -0.009779887186040363
0.8704755626774794 -0.009061781389999858
0.8786044232532422 -0.00836282887676384
0.8865052266813687 -0.007685627691052229
0.894173213813303 -0.007032731526958267
0.9016037657403225 -0.006406514501899491
0.9087924065757916 -0.0058090603804626835
0.9157348061512727 -0.005242082348772744
0.9224267826248536 -0.004706875850029838
0.928864305000136 -0.004204303541881379
0.9350434955543556 -0.003734808467237906
0.9409606321741775 -0.003298449308315107
0.9466121505977576 -0.002894950287351939
0.9519946465617215 -0.002523757944763403
0.9571048778517655 -0.00218409761466363
0.9619397662556433 -0.0018750237789689358
0.9664963994173694 -0.0015954603888155426
0.9707720325915102 -0.001344229423080941
0.9747640902965183 -0.0011200681217999715
0.9784701678661044 -0.0009216372199213965
0.98188803289772 -0.0007475238957154667
0.985015626597272 -0.0005962438915565204
0.9878510650192642 -0.000466247301765977
0.9903926402016152 -0.000355931881001719
0.9926388211944706 -0.0002636665181301653
0.9945882549823906 -0.00018782592186308584
0.9962397672993549 -0.00012683579602001637
0.9975923633360985 -7.922607976654144e-05
0.998645228339345 -4.368841372527714e-05
0.9993977281025862 -1.9133048423099228e-05
0.9998494093481021 -4.740057538322123e-06
1.0 0.0
