1.0 0.0
0.9998494093481021 3.008068691875533e-05
0.9993977281025862 0.00012025033835035818
0.998645228339345 0.0002702902415516692
0.9975923633360985 0.00047983188014679763
0.9962397672993549 0.0007483541168217635
0.9945882549823906 0.0010751850322612453
0.9926388211944706 0.0014595129586839524
0.9903926402016152 0.001900410959321434
0.9878510650192642 0.0023968778440723476
0.985015626597272 0.00294789688024643
0.98188803289772 0.0035525108753835
0.9784701678661044 0.00420990958631514
0.9747640902965183 0.004919522807068563
0.9707720325915102 0.005681110376980138
0.9664963994173694 0.006494839057961836
0.9619397662556433 0.007361336000261903
0.9571048778517655 0.008281709474267934
0.9519946465617215 0.009257529677081098
0.9466121505977576 0.010290765567869906
0.9409606321741775 0.011383677555878255
0.9350434955543556 0.012538670068898285
0.928864305000136 0.013758112119387638
0.9224267826248536 0.015044137504492633
0.9157348061512727 0.016398438815710153
0.9087924065757916 0.017822070680235048
0.9016037657403225 0.019315277430837413
0.894173213813303 0.020877358685678776
0.8865052266813687 0.02250658326099837
0.8786044232532422 0.02420015773814561
0.8704755626774794 0.025954251283622144
0.8621235414757333 0.027764073473719213
0.8535533905932737 0.02962399742053708
0.8447702723685334 0.0315277169104761
0.8357794774235092 0.03346842393101003
0.8265864214768883 0.03543899211708268
0.8171966420818224 0.03743215236456743
0.8076157952903136 0.039440649023979306
0.7978496522462164 0.041457368422576434
0.7879040957089227 0.04347543554858906
0.7777851165098009 0.045488279059398354
0.7674988099435485 0.04748966880820425
0.7570513720966108 0.04947373331834842
0.746449096114892 0.05143496666501251
0.7356983684129987 0.05336823479275771
0.7248056648273034 0.05526879032926717
0.713777546715141 0.05713230257163947
0.7026206570024947 0.058954905828199594
0.691341716182545 0.06073326515494708
0.6799475182674938 0.06246465428979507
0.6684449266961098 0.06414703685068933
0.6568408701994456 0.06577913917616403
0.645142338627231 0.06736050198827812
0.6333563787374491 0.0688914986164128
0.6214900899516319 0.07037330989155983
0.6095506200784349 0.07180784982980772
0.5975451610080642 0.07319764147561225
0.5854809443801506 0.07454564819139534
0.5733652372276805 0.07585507155850768
0.5612053375996082 0.07712913214975253
0.54900857016478 0.07837085304315741
0.5367822817998334 0.07958286749891112
0.5245338371637088 0.08076727135199274
0.512270614261456 0.08192553728103502
0.4999999999999999 0.08305850239039124
0.4877293857385438 0.08416643296631841
0.475466162836291 0.0852491615696046
0.46321771820016633 0.08630628271849435
0.4509914298352198 0.08733738529998715
0.43879466240039156 0.08834229350887265
0.42663476277231926 0.08932128440637964
0.41451905561984914 0.09027524973434911
0.4024548389919357 0.09120577271957091
0.3904493799215649 0.09211509718978488
0.3785099100483679 0.09300597594673599
0.36664362126255073 0.09388139719351472
0.35485766137276875 0.09474420079302263
0.3431591298005543 0.09559660895236673
0.33155507330389 0.09643970723302794
0.320052481732506 0.09727292030593362
0.30865828381745486 0.09809353154850854
0.29737934299750524 0.0988962957012948
0.28622245328485874 0.09967318908033056
0.27519433517269654 0.10041333247604418
0.26430163158700104 0.10110310854265465
0.2535509038851079 0.10172647931324064
0.2429486279033891 0.10226549192493987
0.23250119005645137 0.1027009433720297
0.2222148834901989 0.10301315983164502
0.2120959042910774 0.10318283440829466
0.20215034775378343 0.10319186030463798
0.19238420470968637 0.10302409529542847
0.18280335791817703 0.1026659982676478
0.17341357852311146 0.102107089210659
0.16422052257649067 0.10134019953090746
0.15522972763146647 0.10036149854601367
0.14644660940672616 0.09917030270949441
0.1378764585242665 0.09776869452892419
0.12952443732252045 0.09616099623333038
0.12139557674675777 0.0943531571570838
0.11349477331863145 0.09235212203815155
0.10582678618669683 0.09016524900434354
0.09839623425967753 0.08779984060704611
0.09120759342420814 0.08526283921426984
0.08426519384872727 0.08256072042600572
0.07757321737514639 0.07969959654945864
0.07113569499986394 0.07668551864116945
0.06495650444564427 0.07352494251177757
0.059039367825822475 0.07022530375024937
0.05338784940224234 0.06679563140651139
0.048005353438278275 0.0632471212002763
0.042895122148234655 0.05959358811993404
0.038060233744356575 0.05585172542719945
0.03350360058263052 0.052041111989563286
0.029227967408489597 0.04818393135124561
0.025235909703481607 0.04430439217566737
0.021529832133895532 0.04042786828632136
0.018111967102280024 0.03657980483906902
0.014984373402728013 0.032784462470604986
0.012148934980735715 0.029063591089982143
0.009607359798384785 0.02543513727258933
0.007361178805529334 0.02191209259750475
0.005411745017609493 0.018501584161069833
0.0037602327006450165 0.015204293194856167
0.0024076366639015356 0.01201426436647186
0.0013547716606548965 0.008919138861535803
0.0006022718974137975 0.00590081124355094
0.00015059065189787502 0.002936476241313761
0.0 0.0
0.00015059065189787502 -0.0025809232572555894
0.0006022718974137975 -0.005141012636112105
0.0013547716606548965 -0.007660239448078322
0.0024076366639015356 -0.010120135876819297
0.0037602327006450165 -0.012504455175974028
0.005411745017609493 -0.014799697201680583
0.007361178805529334 -0.016995469648490427
0.009607359798384785 -0.01908466694281997
0.012148934980735715 -0.021063461500465015
0.014984373402728013 -0.02293111502022838
0.018111967102280024 -0.024689629699011024
0.021529832133895532 -0.02634326981176792
0.025235909703481607 -0.02789799223095707
0.029227967408489597 -0.02936082958340257
0.03350360058263052 -0.030739271511300324
0.038060233744356575 -0.03204068783244145
0.042895122148234655 -0.033271832462795886
0.048005353438278275 -0.03443845920360968
0.05338784940224234 -0.03554507055255974
0.059039367825822475 -0.03659480938615407
0.06495650444564427 -0.037589491590018335
0.07113569499986394 -0.03852976642364163
0.07757321737514639 -0.03941538148761092
0.08426519384872727 -0.04024552138690379
0.09120759342420814 -0.04101918414613483
0.09839623425967753 -0.041735557497741264
0.10582678618669683 -0.04239435844263356
0.11349477331863145 -0.04299610382237194
0.12139557674675777 -0.04354228664040618
0.12952443732252045 -0.04403544190960142
0.1378764585242665 -0.04447909610238646
0.14644660940672616 -0.044877604957651626
0.15522972763146647 -0.04523589454855124
0.16422052257649067 -0.045559129280908425
0.17341357852311146 -0.04585233713723148
0.18280335791817703 -0.046120026452838435
0.19238420470968637 -0.04636582948276435
0.20215034775378343 -0.04659220592037727
0.2120959042910774 -0.04680023455056553
0.2222148834901989 -0.04698951379518508
0.23250119005645137 -0.047158182675721874
0.2429486279033891 -0.0473030634690538
0.2535509038851079 -0.047419916942061116
0.26430163158700104 -0.04750379140434134
0.27519433517269654 -0.04754943873417746
0.28622245328485874 -0.04755176469433519
0.29737934299750524 -0.04750627775096038
0.30865828381745486 -0.047409500495956915
0.320052481732506 -0.047259310650517895
0.33155507330389 -0.047055184240544286
0.3431591298005543 -0.04679832139809967
0.35485766137276875 -0.0464916446833802
0.36664362126255073 -0.04613967003654587
0.3785099100483679 -0.045748260596709736
0.3904493799215649 -0.04532428282045804
0.4024548389919357 -0.04487519183667721
0.41451905561984914 -0.04440857818295575
0.42663476277231926 -0.04393171057925451
0.43879466240039156 -0.043451109040121706
0.4509914298352198 -0.04297217948739922
0.46321771820016633 -0.042498935417364235
0.475466162836291 -0.04203382462106234
0.4877293857385438 -0.04157767013227497
0.4999999999999999 -0.04112972525694471
0.512270614261456 -0.04068783351933006
0.5245338371637088 -0.04024867639724177
0.5367822817998334 -0.039808085455039596
0.54900857016478 -0.039361391398155456
0.5612053375996082 -0.0389037809436889
0.5733652372276805 -0.038430633282925925
0.5854809443801506 -0.03793781113698937
0.5975451610080642 -0.03742188660918465
0.6095506200784349 -0.03688028868766601
0.6214900899516319 -0.03631136671040612
0.6333563787374491 -0.03571437168236016
0.645142338627231 -0.035089364357822665
0.6568408701994456 -0.034437064869955736
0.6684449266961098 -0.033758662932094376
0.6799475182674938 -0.033055609945400195
0.691341716182545 -0.032329414606664435
0.7026206570024947 -0.03158146189283232
0.713777546715141 -0.03081287185781702
0.7248056648273034 -0.030024409913253138
0.7356983684129987 -0.02921645468386589
0.746449096114892 -0.028389023689342624
0.7570513720966108 -0.027541851565661125
0.7674988099435485 -0.026674510803055655
0.7777851165098009 -0.025786561448383778
0.7879040957089227 -0.024877714165297722
0.7978496522462164 -0.023947990580455988
0.8076157952903136 -0.02299786592331307
0.8171966420818224 -0.02202838139869517
0.8265864214768883 -0.02104121720142054
0.8357794774235092 -0.020038721191432494
0.8447702723685334 -0.01902389255542182
0.8535533905932737 -0.018000323850409002
0.8621235414757333 -0.016972108268208223
0.8704755626774794 -0.0159437214745946
0.8786044232532422 -0.01491988877326241
0.8865052266813687 -0.013905448558963989
0.894173213813303 -0.012905222120581043
0.9016037657403225 -0.011923898011959165
0.9087924065757916 -0.010965936695151415
0.9157348061512727 -0.010035498303679148
0.9224267826248536 -0.00913639351850459
0.928864305000136 -0.008272055023473345
0.9350434955543556 -0.007445525082568902
0.9409606321741775 -0.006659453648392064
0.9466121505977576 -0.005916101158988267
0.9519946465617215 -0.005217340790134386
0.9571048778517655 -0.004564656282023653
0.9619397662556433 -0.003959133347060075
0.9664963994173694 -0.0034014448236387405
0.9707720325915102 -0.0028918318760923303
0.9747640902965183 -0.002430085366932396
0.9784701678661044 -0.0020155327975775227
0.98188803289772 -0.0016470367495485642
0.985015626597272 -0.0013230104696201994
0.9878510650192642 -0.001041455138047015
0.9903926402016152 -0.0008000215444501596
0.9926388211944706 -0.0005960965622220628
0.9945882549823906 -0.00042691221402690324
0.9962397672993549 -0.00028967254781308503
0.9975923633360985 -0.00018169128688374185
0.998645228339345 -0.00010053154090454323
0.9993977281025862 -4.413796949720107e-05
0.9998494093481021 -1.0951796035632406e-05
1.0 0.0
