1.0 0.0
0.9998494093481021 1.6538156604451944e-05
0.9993977281025862 6.641438767967534e-05
0.998645228339345 0.00015040524225414399
0.9975923633360985 0.00026977683046453416
0.9962397672993549 0.00042624588521206983
0.9945882549823906 0.000621931258451727
0.9926388211944706 0.0008593007055310177
0.9903926402016152 0.00114111773000341
0.9878510650192642 0.001470392376542809
0.985015626597272 0.0018503382737123414
0.98188803289772 0.0022843361520283414
0.9784701678661044 0.0027759017893716053
0.9747640902965183 0.003328654204668283
0.9707720325915102 0.003946278273221694
0.9664963994173694 0.004632475070731082
0.9619397662556433 0.005390893380004934
0.9571048778517655 0.006225037008864329
0.9519946465617215 0.007138144827253189
0.9466121505977576 0.008133043554555125
0.9409606321741775 0.009211977008763125
0.9350434955543556 0.010376419368139923
0.928864305000136 0.01162688354402241
0.9224267826248536 0.012962738572395415
0.9157348061512727 0.014382051608292598
0.9087924065757916 0.015881470360947555
0.9016037657403225 0.017456160491028275
0.894173213813303 0.019099809622014505
0.8865052266813687 0.020804705384433256
0.8786044232532422 0.022561889659478064
0.8704755626774794 0.02436138538670168
0.8621235414757333 0.026192486494653906
0.8535533905932737 0.028044096268050853
0.8447702723685334 0.029905095302753825
0.8357794774235092 0.03176471754314429
0.8265864214768883 0.033612912020709075
0.8171966420818224 0.03544066891380127
0.8076157952903136 0.03724029133100422
0.7978496522462164 0.03900559850600661
0.7879040957089227 0.040732051448970276
0.7777851165098009 0.042416797990499126
0.7674988099435485 0.04405863999507494
0.7570513720966108 0.04565793074488908
0.746449096114892 0.04721641461704426
0.7356983684129987 0.048737023846783724
0.7248056648273034 0.05022364820954004
0.713777546715141 0.05168089287932167
0.7026206570024947 0.05311383773121846
0.691341716182545 0.05452780831266718
0.6799475182674938 0.05592816508664728
0.6684449266961098 0.05732011387910294
0.6568408701994456 0.05870853725822517
0.645142338627231 0.06009784427084036
0.6333563787374491 0.061491834860519644
0.6214900899516319 0.06289357551516146
0.6095506200784349 0.06430528416418899
0.5975451610080642 0.06572822480159794
0.5854809443801506 0.06716261532456032
0.5733652372276805 0.06860755511305873
0.5612053375996082 0.07006098135845308
0.54900857016478 0.07151966453827635
0.5367822817998334 0.07297925330296784
0.5245338371637088 0.07443437713714353
0.512270614261456 0.07587881145718932
0.4999999999999999 0.07730570452832534
0.4877293857385438 0.07870785918598323
0.475466162836291 0.08007805548714411
0.46321771820016633 0.08140939389165675
0.4509914298352198 0.0826956332257164
0.43879466240039156 0.08393149430556865
0.42663476277231926 0.08511289934740947
0.41451905561984914 0.0862371195708862
0.4024548389919357 0.08730280882514942
0.3904493799215649 0.08830990939188307
0.3785099100483679 0.08925942676857496
0.36664362126255073 0.09015308231965659
0.35485766137276875 0.09099286508185081
0.3431591298005543 0.09178051547331657
0.33155507330389 0.09251698293126552
0.320052481732506 0.09320190546816494
0.30865828381745486 0.09383316093066804
0.29737934299750524 0.09440653687439214
0.28622245328485874 0.09491555838193204
0.27519433517269654 0.09535150127850729
0.26430163158700104 0.09570360292889384
0.2535509038851079 0.09595946541788468
0.2429486279033891 0.0961056280000367
0.23250119005645137 0.09612826897192976
0.2222148834901989 0.09601398326711676
0.2120959042910774 0.09575057259935402
0.20215034775378343 0.09532778102486604
0.19238420470968637 0.09473791101070263
0.18280335791817703 0.09397626355668362
0.17341357852311146 0.09304136008391191
0.16422052257649067 0.09193492254884834
0.15522972763146647 0.09066160994523421
0.14644660940672616 0.08922853203526875
0.1378764585242665 0.08764458264847462
0.12952443732252045 0.08591965307384541
0.12139557674675777 0.08406379906172919
0.11349477331863145 0.08208644129632697
0.10582678618669683 0.07999567804237888
0.09839623425967753 0.07779777985522032
0.09120759342420814 0.07549692035595999
0.08426519384872727 0.07309517540436974
0.07757321737514639 0.07059279744698176
0.07113569499986394 0.06798874471188363
0.06495650444564427 0.06528141882584809
0.059039367825822475 0.06246954188924046
0.05338784940224234 0.05955308734287385
0.048005353438278275 0.05653416989158344
0.042895122148234655 0.053417799428048425
0.038060233744356575 0.05021241264133124
0.03350360058263052 0.04693011325837889
0.029227967408489597 0.04358657629058089
0.025235909703481607 0.04020060116511505
0.021529832133895532 0.0367933306031749
0.018111967102280024 0.03338718365792116
0.014984373402728013 0.030004579509106812
0.012148934980735715 0.02666655074130884
0.009607359798384785 0.02339135872624229
0.007361178805529334 0.020193227923363036
0.005411745017609493 0.017081309811526824
0.0037602327006450165 0.014058971109441022
0.0024076366639015356 0.011123476194133668
0.0013547716606548965 0.008266102257932458
0.0006022718974137975 0.0054726904591220595
0.00015059065189787502 0.002724600209688282
0.0 0.0
0.00015059065189787502 -0.002387174339653388
0.0006022718974137975 -0.004759786937057555
0.0013547716606548965 -0.007103771131470363
0.0024076366639015356 -0.00940601803960636
0.0037602327006450165 -0.011654776948433311
0.005411745017609493 -0.013839968230313901
0.007361178805529334 -0.01595339025349692
0.009607359798384785 -0.017988809793073882
0.012148934980735715 -0.019941934235797577
0.014984373402728013 -0.021810272728480986
0.018111967102280024 -0.02359290165010067
0.021529832133895532 -0.025290156746896632
0.025235909703481607 -0.026903279411927484
0.029227967408489597 -0.028434047512965178
0.03350360058263052 -0.029884421647953366
0.038060233744356575 -0.0312562357024586
0.042895122148234655 -0.032550956263421166
0.048005353438278275 -0.033769529158718274
0.05338784940224234 -0.03491232365214747
0.059039367825822475 -0.03597917625706039
0.06495650444564427 -0.03696952743697059
0.07113569499986394 -0.03788263634948574
0.07757321737514639 -0.03871785192836995
0.08426519384872727 -0.039474913556434114
0.09120759342420814 -0.04015425178267313
0.09839623425967753 -0.04075725922259869
0.10582678618669683 -0.04128650399021969
0.11349477331863145 -0.04174586257495439
0.12139557674675777 -0.04214055563246131
0.12952443732252045 -0.04247707817298755
0.1378764585242665 -0.04276302444739183
0.14644660940672616 -0.04300681672090272
0.15522972763146647 -0.04321735534762988
0.16422052257649067 -0.043403614424508595
0.17341357852311146 -0.04357421222943996
0.18280335791817703 -0.04373698821038022
0.19238420470968637 -0.04389861826027869
0.20215034775378343 -0.04406429737296532
0.2120959042910774 -0.0442375137318035
0.2222148834901989 -0.04441993124353855
0.23250119005645137 -0.044611389071551606
0.2429486279033891 -0.044810017545053225
0.2535509038851079 -0.04501246068640795
0.26430163158700104 -0.04521418726947695
0.27519433517269654 -0.045409865493265394
0.28622245328485874 -0.045593771597185785
0.29737934299750524 -0.04576020045187801
0.30865828381745486 -0.0459038465183743
0.320052481732506 -0.04602012653829917
0.33155507330389 -0.046105420635883784
0.3431591298005543 -0.046157215715755116
0.35485766137276875 -0.046174143505380745
0.36664362126255073 -0.0461559145881901
0.3785099100483679 -0.046103158530512243
0.3904493799215649 -0.046017187974879636
0.4024548389919357 -0.04589971069594925
0.41451905561984914 -0.04575251758217814
0.42663476277231926 -0.04557717599644528
0.43879466240039156 -0.04537475688032558
0.4509914298352198 -0.04514562042409652
0.46321771820016633 -0.044889279466044985
0.475466162836291 -0.04460435253106809
0.4877293857385438 -0.0442886102259828
0.4999999999999999 -0.04393911030943058
0.512270614261456 -0.04355240889023354
0.5245338371637088 -0.043124828566189
0.5367822817998334 -0.04265275946583495
0.54900857016478 -0.04213296650280198
0.5612053375996082 -0.041562875899661136
0.5733652372276805 -0.04094081617299482
0.5854809443801506 -0.04026619306847548
0.5975451610080642 -0.039539583979128094
0.6095506200784349 -0.038762744607003526
0.6214900899516319 -0.037938528376743524
0.6333563787374491 -0.037070726681752195
0.645142338627231 -0.0361638447704068
0.6568408701994456 -0.035222833379138965
0.6684449266961098 -0.03425279964825555
0.6799475182674938 -0.03325872214832142
0.691341716182545 -0.03224519393015836
0.7026206570024947 -0.031216214519834733
0.713777546715141 -0.030175047024710317
0.7248056648273034 -0.029124150461919202
0.7356983684129987 -0.02806519063615033
0.746449096114892 -0.02699912599967828
0.7570513720966108 -0.02592635853784395
0.7674988099435485 -0.0248469343884693
0.7777851165098009 -0.023760775063660942
0.7879040957089227 -0.022667918088568002
0.7978496522462164 -0.02156874572499641
0.8076157952903136 -0.02046418215335662
0.8171966420818224 -0.019355842824094097
0.8265864214768883 -0.01824612430019059
0.8357794774235092 -0.01713822833524345
0.8447702723685334 -0.01603611965210336
0.8535533905932737 -0.014944422385479442
0.8621235414757333 -0.013868264952466599
0.8704755626774794 -0.012813086828108736
0.8786044232532422 -0.011784423058296946
0.8865052266813687 -0.01078768320777703
0.894173213813303 -0.009827940829669656
0.9016037657403225 -0.008909747603687977
0.9087924065757916 -0.008036983287042755
0.9157348061512727 -0.007212748902081734
0.9224267826248536 -0.006439306540467802
0.928864305000136 -0.005718065192012052
0.9350434955543556 -0.005049608469298838
0.9409606321741775 -0.004433757290690859
0.9466121505977576 -0.0038696587045082996
0.9519946465617215 -0.003355891178859129
0.9571048778517655 -0.002890576827523358
0.9619397662556433 -0.0024714920744095454
0.9664963994173694 -0.002096169977700813
0.9707720325915102 -0.0017619895852430672
0.9747640902965183 -0.00146624999645011
0.9784701678661044 -0.001206228992449641
0.98188803289772 -0.000979227931968049
0.985015626597272 -0.0007826059227877741
0.9878510650192642 -0.0006138069707452487
0.9903926402016152 -0.0004703838653781926
0.9926388211944706 -0.0003500220469035787
0.9945882549823906 -0.000250565742250572
0.9962397672993549 -0.00017004743335189313
0.9975923633360985 -0.00010672042549096647
0.998645228339345 -5.909310985497924e-05
0.9993977281025862 -2.596262694925116e-05
0.9998494093481021 -6.4451525056311265e-06
1.0 0.0
