1.0 0.0
0.9998494093481021 1.7301803224384878e-05
0.9993977281025862 6.932998629658432e-05
0.998645228339345 0.00015644545162335634
0.9975923633360985 0.0002792261500960123
0.9962397672993549 0.0004384356839935756
0.9945882549823906 0.0006349866184239808
0.9926388211944706 0.0008699044545988903
0.9903926402016152 0.0011442982393194481
0.9878510650192642 0.0014593428647497915
0.985015626597272 0.0018162763451578612
0.98188803289772 0.002216412955867486
0.9784701678661044 0.002661170390874845
0.9747640902965183 0.003152106402293713
0.9707720325915102 0.0036909581006943585
0.9664963994173694 0.004279675557347711
0.9619397662556433 0.004920440813251329
0.9571048778517655 0.005615664005362813
0.9519946465617215 0.006367950069781552
0.9466121505977576 0.007180032233920687
0.9409606321741775 0.008054671993635642
0.9350434955543556 0.008994529113359379
0.928864305000136 0.01000200895370542
0.9224267826248536 0.011079097677581501
0.9157348061512727 0.01222719821082518
0.9087924065757916 0.013446980926242347
0.9016037657403225 0.014738262700843592
0.894173213813303 0.016099926240592866
0.8865052266813687 0.017529888513094505
0.8786044232532422 0.019025123064828484
0.8704755626774794 0.020581736334839083
0.8621235414757333 0.02219509329623093
0.8535533905932737 0.023859983367003366
0.8447702723685334 0.025570814002973893
0.8357794774235092 0.02732181709715794
0.8265864214768883 0.02910725250558038
0.8171966420818224 0.030921593777292825
0.8076157952903136 0.032759683388570916
0.7978496522462164 0.03461684820405996
0.7879040957089227 0.03648897011092777
0.7777851165098009 0.03837251130578633
0.7674988099435485 0.04026449803573398
0.7570513720966108 0.04216247021174201
0.746449096114892 0.04406440682147219
0.7356983684129987 0.04596863820521919
0.7248056648273034 0.047873755931202584
0.713777546715141 0.049778529308550694
0.7026206570024947 0.05168183477757536
0.691341716182545 0.0535826009312997
0.6799475182674938 0.055479768257886995
0.6684449266961098 0.05737225938984906
0.6568408701994456 0.0592589532039603
0.645142338627231 0.06113865493248123
0.6333563787374491 0.06301005475828708
0.6214900899516319 0.06487166921250014
0.6095506200784349 0.0667217628994689
0.5975451610080642 0.06855825226561674
0.5854809443801506 0.07037859776712428
0.5733652372276805 0.07217969523360379
0.5612053375996082 0.07395778079924926
0.54900857016478 0.07570836586277094
0.5367822817998334 0.07742621866290791
0.5245338371637088 0.07910540694464738
0.512270614261456 0.08073941182618664
0.4999999999999999 0.08232131662055196
0.4877293857385438 0.08384406654995163
0.475466162836291 0.0853007867737647
0.46321771820016633 0.0866851378466848
0.4509914298352198 0.08799168060799546
0.43879466240039156 0.08921621750689103
0.42663476277231926 0.0903560752684783
0.41451905561984914 0.09141029512378186
0.4024548389919357 0.09237970175812003
0.3904493799215649 0.0932668304942509
0.3785099100483679 0.09407570345702722
0.36664362126255073 0.09481145865571335
0.35485766137276875 0.09547984988711702
0.3431591298005543 0.09608664876155583
0.33155507330389 0.09663699160608388
0.320052481732506 0.09713472223678622
0.30865828381745486 0.09758178559393088
0.29737934299750524 0.09797772634759823
0.28622245328485874 0.09831934060901214
0.27519433517269654 0.0986005181246313
0.26430163158700104 0.09881229757933475
0.2535509038851079 0.09894314012058733
0.2429486279033891 0.09897940749728834
0.23250119005645137 0.09890601303300701
0.2222148834901989 0.09870719779096745
0.2120959042910774 0.09836737234712949
0.20215034775378343 0.0978719578516594
0.19238420470968637 0.09720815934411434
0.18280335791817703 0.09636560984305075
0.17341357852311146 0.09533683519367626
0.16422052257649067 0.09411750606770689
0.15522972763146647 0.092706463386847
0.14644660940672616 0.09110552491470819
0.1378764585242665 0.08931910174613943
0.12952443732252045 0.08735367182000695
0.12139557674675777 0.08521717149096315
0.11349477331863145 0.0829183741111246
0.10582678618669683 0.08046632554412605
0.09839623425967753 0.07786990028071757
0.09120759342420814 0.07513752878274739
0.08426519384872727 0.07227712798144456
0.07757321737514639 0.06929624422906662
0.07113569499986394 0.06620239363010447
0.06495650444564427 0.0630035609826205
0.059039367825822475 0.059708797974828705
0.05338784940224234 0.05632884600838456
0.048005353438278275 0.05287670080399268
0.042895122148234655 0.049368035891850216
0.038060233744356575 0.04582141053623353
0.03350360058263052 0.04225820410481578
0.029227967408489597 0.038702242085720685
0.025235909703481607 0.03517910690065801
0.021529832133895532 0.03171515686073583
0.018111967102280024 0.028336306268453803
0.014984373402728013 0.025066645957377898
0.012148934980735715 0.021927003888605627
0.009607359798384785 0.018933557687012964
0.007361178805529334 0.016096613795076722
0.005411745017609493 0.013419660687327414
0.0037602327006450165 0.01089878667732815
0.0024076366639015356 0.008522527511324558
0.0013547716606548965 0.0062721772227006915
0.0006022718974137975 0.004122560279591718
0.00015059065189787502 0.0020432269325918345
0.0 0.0
0.00015059065189787502 -0.002473844437198439
0.0006022718974137975 -0.004931204276117891
0.0013547716606548965 -0.007356287724494162
0.0024076366639015356 -0.009734643209965147
0.0037602327006450165 -0.012053719297777031
0.005411745017609493 -0.014303301338279003
0.007361178805529334 -0.0164757979684072
0.009607359798384785 -0.018566361392135716
0.012148934980735715 -0.02057283726082561
0.014984373402728013 -0.02249555207733757
0.018111967102280024 -0.02433695745586994
0.021529832133895532 -0.026101160435573825
0.025235909703481607 -0.02779337664183381
0.029227967408489597 -0.0294193478608138
0.03350360058263052 -0.030984767203112544
0.038060233744356575 -0.032494753386194425
0.042895122148234655 -0.03395341091726124
0.048005353438278275 -0.03536350550064108
0.05338784940224234 -0.03672627442601857
0.059039367825822475 -0.038041380775959414
0.06495650444564427 -0.03930700888450945
0.07113569499986394 -0.040520087478326375
0.07757321737514639 -0.041676617196395024
0.08426519384872727 -0.042772071468080826
0.09120759342420814 -0.043801834622129776
0.09839623425967753 -0.0447616389801776
0.10582678618669683 -0.04564796369500462
0.11349477331863145 -0.04645836211154507
0.12139557674675777 -0.04719169110006572
0.12952443732252045 -0.04784822456482385
0.1378764585242665 -0.04842964342980375
0.14644660940672616 -0.048938905001310415
0.15522972763146647 -0.04938000482390591
0.16422052257649067 -0.04975765313603957
0.17341357852311146 -0.050076895055449065
0.18280335791817703 -0.050342708110261876
0.19238420470968637 -0.05055961232319962
0.20215034775378343 -0.05073132664177438
0.2120959042910774 -0.050860501229301476
0.2222148834901989 -0.05094854837402903
0.23250119005645137 -0.05099558612948357
0.2429486279033891 -0.05100049901894836
0.2535509038851079 -0.050961110064947246
0.26430163158700104 -0.05087444890573533
0.27519433517269654 -0.05073709264658974
0.28622245328485874 -0.05054555005218335
0.29737934299750524 -0.05029665622291716
0.30865828381745486 -0.049987944292164715
0.320052481732506 -0.049617962962709684
0.33155507330389 -0.04918651364759224
0.3431591298005543 -0.04869478814036558
0.35485766137276875 -0.048145396469133524
0.36664362126255073 -0.047542284111250034
0.3785099100483679 -0.04689054722063153
0.3904493799215649 -0.04619616311707454
0.4024548389919357 -0.04546566026045751
0.41451905561984914 -0.04470575668550732
0.42663476277231926 -0.04392299801000486
0.43879466240039156 -0.043123425491725355
0.4509914298352198 -0.04231230128633566
0.46321771820016633 -0.04149391237798296
0.475466162836291 -0.040671467152174144
0.4877293857385438 -0.03984708995062503
0.4999999999999999 -0.039021909978375444
0.512270614261456 -0.03819623243569257
0.5245338371637088 -0.037369772481604224
0.5367822817998334 -0.036541927244002334
0.54900857016478 -0.03571205803911062
0.5612053375996082 -0.03487975450045819
0.5733652372276805 -0.034045054457362126
0.5854809443801506 -0.03320859792279521
0.5975451610080642 -0.032371700015034845
0.6095506200784349 -0.03153633544022129
0.6214900899516319 -0.03070503558336158
0.6333563787374491 -0.029880707525425054
0.645142338627231 -0.029066391678814887
0.6568408701994456 -0.028264980557491312
0.6684449266961098 -0.027478924964269773
0.6799475182674938 -0.02670995527101659
0.691341716182545 -0.025958844389610748
0.7026206570024947 -0.025225235607180495
0.713777546715141 -0.024507553020180248
0.7248056648273034 -0.023803005353806243
0.7356983684129987 -0.02310768612600646
0.746449096114892 -0.022416765103985423
0.7570513720966108 -0.02172475850175036
0.7674988099435485 -0.021025859014451975
0.7777851165098009 -0.020314302096581437
0.7879040957089227 -0.019584742223765623
0.7978496522462164 -0.018832612401583553
0.8076157952903136 -0.01805444187215788
0.8171966420818224 -0.017248110604995964
0.8265864214768883 -0.016413024365545533
0.8357794774235092 -0.015550200434343167
0.8447702723685334 -0.014662260830747408
0.8535533905932737 -0.013753336590180435
0.8621235414757333 -0.012828892701511573
0.8704755626774794 -0.011895488265891822
0.8786044232532422 -0.010960489947610308
0.8865052266813687 -0.010031758657288939
0.894173213813303 -0.009117329601753118
0.9016037657403225 -0.00822510446899243
0.9087924065757916 -0.00736257183837404
0.9157348061512727 -0.0065365682633390055
0.9224267826248536 -0.0057530882741562255
0.928864305000136 -0.005017147216775012
0.9350434955543556 -0.004332696779710013
0.9409606321741775 -0.003702589600564891
0.9466121505977576 -0.003128586732021684
0.9519946465617215 -0.0026114001195265114
0.9571048778517655 -0.0021507616208883444
0.9619397662556433 -0.0017455103958971209
0.9664963994173694 -0.0013936915371387958
0.9707720325915102 -0.0010926603640969994
0.9747640902965183 -0.0008391885929135827
0.9784701678661044 -0.0006295703571606911
0.98188803289772 -0.000459727556353856
0.985015626597272 -0.00032531507182565454
0.9878510650192642 -0.00022182691138729037
0.9903926402016152 -0.00014470430387641739
0.9926388211944706 -8.944621988641787e-05
0.9945882549823906 -5.172186998651061e-05
0.9962397672993549 -2.7483597908568e-05
0.9975923633360985 -1.3077437406210605e-05
0.998645228339345 -5.347628009303993e-06
0.9993977281025862 -1.7307483887364231e-06
0.9998494093481021 -3.349391946474872e-07
1.0 0.0
