1.0 0.0
0.9998494093481021 2.4770789934599644e-05
0.9993977281025862 9.918407613096669e-05
0.998645228339345 0.00022353622946471249
0.9975923633360985 0.00039830091300706874
0.9962397672993549 0.0006241019007838297
0.9945882549823906 0.0009016809977225599
0.9926388211944706 0.0012318658750956016
0.9903926402016152 0.0016155425379579254
0.9878510650192642 0.002053636232738581
0.985015626597272 0.002547102983331182
0.98188803289772 0.0030969318191564994
0.9784701678661044 0.0037041554177781075
0.9747640902965183 0.004369864663263115
0.9707720325915102 0.005095220858309097
0.9664963994173694 0.005881458320108914
0.9619397662556433 0.006729870050964671
0.9571048778517655 0.007641770203873328
0.9519946465617215 0.008618429126385744
0.9466121505977576 0.009660979692849793
0.9409606321741775 0.010770297134213012
0.9350434955543556 0.011946858263061423
0.928864305000136 0.013190589437836056
0.9224267826248536 0.014500715383628451
0.9157348061512727 0.015875622709992016
0.9087924065757916 0.017312752361496993
0.9016037657403225 0.018808534164462612
0.894173213813303 0.020358374113277115
0.8865052266813687 0.021956701255716277
0.8786044232532422 0.023597076321553057
0.8704755626774794 0.02527235904181269
0.8621235414757333 0.026974925946024523
0.8535533905932737 0.02869692583347409
0.8447702723685334 0.03043055657719088
0.8357794774235092 0.032168344819742505
0.8265864214768883 0.033903409694411156
0.8171966420818224 0.03562969301431364
0.8076157952903136 0.03734214128989115
0.7978496522462164 0.039036829161847954
0.7879040957089227 0.0407110189291133
0.7777851165098009 0.04236315627249672
0.7674988099435485 0.04399280745292918
0.7570513720966108 0.04560054765782452
0.746449096114892 0.04718781333229407
0.7356983684129987 0.048756732960966914
0.7248056648273034 0.05030995073912638
0.713777546715141 0.051850455962779415
0.7026206570024947 0.05338142803794247
0.691341716182545 0.054906103178928405
0.6799475182674938 0.05642766466017243
0.6684449266961098 0.057949154476170626
0.6568408701994456 0.05947340099285172
0.645142338627231 0.06100295508944977
0.6333563787374491 0.06254002668743414
0.6214900899516319 0.06408641454228957
0.6095506200784349 0.06564342462193294
0.5975451610080642 0.06721177599374031
0.5854809443801506 0.06879149739957692
0.5733652372276805 0.07038182200733571
0.5612053375996082 0.0719810915367669
0.54900857016478 0.07358668345258641
0.5367822817998334 0.07519497570261213
0.5245338371637088 0.07680136224469422
0.512270614261456 0.07840032928410416
0.4999999999999999 0.07998559692715781
0.4877293857385438 0.0815503242993754
0.475466162836291 0.08308736875057549
0.46321771820016633 0.0845895824034743
0.4509914298352198 0.0860501228926928
0.43879466240039156 0.08746275054996305
0.42663476277231926 0.08882208224404488
0.41451905561984914 0.09012377307443688
0.4024548389919357 0.09136460133571296
0.3904493799215649 0.09254243945555833
0.3785099100483679 0.09365610345084804
0.36664362126255073 0.09470508500677462
0.35485766137276875 0.09568918247660203
0.3431591298005543 0.09660805868715719
0.33155507330389 0.09746076315596522
0.320052481732506 0.09824526302817771
0.30865828381745486 0.09895802981357263
0.29737934299750524 0.09959372728631743
0.28622245328485874 0.10014503957540838
0.27519433517269654 0.10060266786472914
0.26430163158700104 0.10095551004254731
0.2535509038851079 0.10119102129738354
0.2429486279033891 0.10129573655556755
0.23250119005645137 0.1012559194588645
0.2222148834901989 0.10105828894687334
0.2120959042910774 0.10069076492160485
0.20215034775378343 0.1001431700783733
0.19238420470968637 0.09940782646728161
0.18280335791817703 0.09847999282391769
0.17341357852311146 0.09735810170157923
0.16422052257649067 0.09604377290227054
0.15522972763146647 0.0945416000999862
0.14644660940672616 0.09285872898073667
0.1378764585242665 0.09100426561206228
0.12952443732252045 0.08898857104381346
0.12139557674675777 0.08682251050253169
0.11349477331863145 0.0845167315634365
0.10582678618669683 0.08208104453148968
0.09839623425967753 0.07952396978021953
0.09120759342420814 0.07685250154710745
0.08426519384872727 0.07407211691944861
0.07757321737514639 0.07118703430589389
0.07113569499986394 0.06820069984534119
0.06495650444564427 0.06511645544456658
0.059039367825822475 0.061938320929430836
0.05338784940224234 0.05867180735252407
0.048005353438278275 0.055324670550289896
0.042895122148234655 0.051907514646583525
0.038060233744356575 0.048434164630026866
0.03350360058263052 0.04492174482396247
0.029227967408489597 0.04139042464711874
0.025235909703481607 0.03786282245882206
0.021529832133895532 0.034363089904215764
0.018111967102280024 0.030915730146140075
0.014984373402728013 0.02754423079465077
0.012148934980735715 0.02426961357915865
0.009607359798384785 0.021109015715801833
0.007361178805529334 0.018074421086085382
0.005411745017609493 0.015171652208936964
0.0037602327006450165 0.0123997169357622
0.0024076366639015356 0.009750578117545632
0.0013547716606548965 0.007209382281417906
0.0006022718974137975 0.00475514733184012
0.00015059065189787502 0.0023618725595367447
0.0 0.0
0.00015059065189787502 -0.0017178165002569143
0.0006022718974137975 -0.0034268733436409507
0.0013547716606548965 -0.005118937447188975
0.0024076366639015356 -0.006786787041983587
0.0037602327006450165 -0.008424616024312302
0.005411745017609493 -0.010028325664489081
0.007361178805529334 -0.01159568025428103
0.009607359798384785 -0.013126313952420948
0.012148934980735715 -0.014621587778271002
0.014984373402728013 -0.01608430749482132
0.018111967102280024 -0.01751832409397564
0.021529832133895532 -0.018928047892907505
0.025235909703481607 -0.020317914143719338
0.029227967408489597 -0.021691842010291028
0.03350360058263052 -0.023052729465987108
0.038060233744356575 -0.024402024057630013
0.042895122148234655 -0.025739403767211688
0.048005353438278275 -0.02706259382855877
0.05338784940224234 -0.028367334975165703
0.059039367825822475 -0.029647507018264012
0.06495650444564427 -0.030895399784765392
0.07113569499986394 -0.03210211220886989
0.07757321737514639 -0.03325805064355478
0.08426519384872727 -0.03435348999309997
0.09120759342420814 -0.03537915663926145
0.09839623425967753 -0.03632679068992122
0.10582678618669683 -0.03718964691502263
0.11349477331863145 -0.037962898684925
0.12139557674675777 -0.038643916878940934
0.12952443732252045 -0.03923240546181457
0.1378764585242665 -0.03973038644643943
0.14644660940672616 -0.04014203838763738
0.15522972763146647 -0.040473403474112414
0.16422052257649067 -0.040731987842020305
0.17341357852311146 -0.04092628718071678
0.18280335791817703 -0.04106527447455357
0.19238420470968637 -0.041157888483335354
0.20215034775378343 -0.04121256021784415
0.2120959042910774 -0.04123681038124342
0.2222148834901989 -0.04123694392786685
0.23250119005645137 -0.041217859147738005
0.2429486279033891 -0.04118297877929353
0.2535509038851079 -0.041134300431118015
0.26430163158700104 -0.04107255391643502
0.27519433517269654 -0.040997444772399534
0.28622245328485874 -0.04090795692354048
0.29737934299750524 -0.040802683645411134
0.30865828381745486 -0.040680154957811084
0.320052481732506 -0.04053913135051373
0.33155507330389 -0.04037883809930996
0.3431591298005543 -0.040199120926865645
0.35485766137276875 -0.040000511782440504
0.36664362126255073 -0.039784202315042365
0.3785099100483679 -0.03955193139802613
0.3904493799215649 -0.03930580104635487
0.4024548389919357 -0.03904804155159745
0.41451905561984914 -0.03878075109007924
0.42663476277231926 -0.03850563707464089
0.43879466240039156 -0.038223785980535496
0.4509914298352198 -0.03793548537311912
0.46321771820016633 -0.03764011671152516
0.475466162836291 -0.037336130700120686
0.4877293857385438 -0.03702110915146777
0.4999999999999999 -0.03669190923558286
0.512270614261456 -0.03634487836030171
0.5245338371637088 -0.035976121444071106
0.5367822817998334 -0.03558179757923317
0.54900857016478 -0.03515842045028967
0.5612053375996082 -0.03470313657807024
0.5733652372276805 -0.034213957502244714
0.5854809443801506 -0.03368992617471211
0.5975451610080642 -0.0331312037100237
0.6095506200784349 -0.0325390696724895
0.6214900899516319 -0.03191583662366109
0.6333563787374491 -0.031264687024333056
0.645142338627231 -0.030589447126167922
0.6568408701994456 -0.029894317631190517
0.6684449266961098 -0.029183584212145376
0.6799475182674938 -0.028461332216795688
0.691341716182545 -0.027731188962410464
0.7026206570024947 -0.026996114096089437
0.713777546715141 -0.026258253864025593
0.7248056648273034 -0.02551886925585809
0.7356983684129987 -0.02477834142651132
0.746449096114892 -0.024036251151098358
0.7570513720966108 -0.023291522931634417
0.7674988099435485 -0.022542619275468505
0.7777851165098009 -0.02178776702066887
0.7879040957089227 -0.021025195662435686
0.7978496522462164 -0.020253367539327178
0.8076157952903136 -0.019471181400232195
0.8171966420818224 -0.01867813406581944
0.8265864214768883 -0.017874429263543875
0.8357794774235092 -0.01706102780245143
0.8447702723685334 -0.016239638565690995
0.8535533905932737 -0.01541265483995963
0.8621235414757333 -0.01458304482651021
0.8704755626774794 -0.013754208431991283
0.8786044232532422 -0.012929814383203633
0.8865052266813687 -0.01211363224879408
0.894173213813303 -0.011309373124015722
0.9016037657403225 -0.010520550712262587
0.9087924065757916 -0.009750371595496526
0.9157348061512727 -0.009001659974562102
0.9224267826248536 -0.00827681846399627
0.928864305000136 -0.00757782302267822
0.9350434955543556 -0.006906247126073428
0.9409606321741775 -0.006263308096729662
0.9466121505977576 -0.005649927267684544
0.9519946465617215 -0.0050667954095967565
0.9571048778517655 -0.004514435548925972
0.9619397662556433 -0.00399325678687935
0.9664963994173694 -0.0035035947678363467
0.9707720325915102 -0.0030457367664234822
0.9747640902965183 -0.0026199316759330355
0.9784701678661044 -0.0022263872183466735
0.98188803289772 -0.0018652582372621906
0.985015626597272 -0.0015366308299368705
0.9878510650192642 -0.0012405072584653482
0.9903926402016152 -0.0009767960760199514
0.9926388211944706 -0.0007453108169172679
0.9945882549823906 -0.0005457790997673673
0.9962397672993549 -0.00037786229496041473
0.9975923633360985 -0.0002411842411115615
0.998645228339345 -0.0001353660775003921
0.9993977281025862 -6.006327045072905e-05
0.9998494093481021 -1.5000471317333403e-05
1.0 0.0
