1.0 0.0
0.9998494093481021 2.675524417453535e-05
0.9993977281025862 0.00010711946989298859
0.998645228339345 0.00024138159311924695
0.9975923633360985 0.00043000219977470965
0.9962397672993549 0.000673585273768338
0.9945882549823906 0.000972844395539284
0.9926388211944706 0.0013285680973379064
0.9903926402016152 0.0017415890116197538
0.9878510650192642 0.0022127606353400083
0.985015626597272 0.0027429440488295183
0.98188803289772 0.0033330049670067825
0.9784701678661044 0.0039838193333633694
0.9747640902965183 0.004696283606176269
0.9707720325915102 0.005471324245747918
0.9664963994173694 0.006309899964076344
0.9619397662556433 0.007212990237716059
0.9571048778517655 0.008181564495476855
0.9519946465617215 0.009216528234796208
0.9466121505977576 0.010318644928021472
0.9409606321741775 0.0114884356757395
0.9350434955543556 0.012726061791120371
0.928864305000136 0.01403119845981504
0.9224267826248536 0.015402909925207577
0.9157348061512727 0.01683953796663282
0.9087924065757916 0.01833861553696989
0.9016037657403225 0.01989681620797695
0.894173213813303 0.02150994759089312
0.8865052266813687 0.023172993362597007
0.8786044232532422 0.02488020427486824
0.8704755626774794 0.0266252339966556
0.8621235414757333 0.02840131132916779
0.8535533905932737 0.030201436729350512
0.8447702723685334 0.03201858860563384
0.8357794774235092 0.03384592382357307
0.8265864214768883 0.03567695743650621
0.8171966420818224 0.03750570881751562
0.8076157952903136 0.03932680491153561
0.7978496522462164 0.041135535883407064
0.7879040957089227 0.042927863514703395
0.7777851165098009 0.04470038773102604
0.7674988099435485 0.046450281043898894
0.7570513720966108 0.04817520394616867
0.746449096114892 0.04987321600525029
0.7356983684129987 0.05154269732319484
0.7248056648273034 0.05318229314743543
0.713777546715141 0.0547908909045145
0.7026206570024947 0.05636763417196621
0.691341716182545 0.0579119726409396
0.6799475182674938 0.05942374159533437
0.6684449266961098 0.06090325951263074
0.6568408701994456 0.062351428699151286
0.645142338627231 0.06376982190676511
0.6333563787374491 0.06516073795126899
0.6214900899516319 0.06652721154711987
0.6095506200784349 0.06787296672279687
0.5975451610080642 0.06920230888128096
0.5854809443801506 0.07051995721580885
0.5733652372276805 0.07183082603911804
0.5612053375996082 0.07313976983497351
0.54900857016478 0.07445131172807155
0.5367822817998334 0.07576937795140085
0.5245338371637088 0.07709706133250624
0.512270614261456 0.07843643464996043
0.4999999999999999 0.07978843005319312
0.4877293857385438 0.0811527940126985
0.475466162836291 0.08252811915458565
0.46321771820016633 0.08391194570954141
0.4509914298352198 0.08530091715162995
0.43879466240039156 0.08669096789397701
0.42663476277231926 0.08807751650870191
0.41451905561984914 0.08945563649146372
0.4024548389919357 0.09082017843814263
0.3904493799215649 0.0921658226273099
0.3785099100483679 0.09348704901851686
0.36664362126255073 0.09477802184468234
0.35485766137276875 0.09603239727269232
0.3431591298005543 0.09724307381798576
0.33155507330389 0.09840191505084649
0.320052481732506 0.09949948142171613
0.30865828381745486 0.10052481176564736
0.29737934299750524 0.10146529455494574
0.28622245328485874 0.10230666400390696
0.27519433517269654 0.10303314690594595
0.26430163158700104 0.10362777328418121
0.2535509038851079 0.10407284866338452
0.2429486279033891 0.10435056944986881
0.23250119005645137 0.1044437471525926
0.2222148834901989 0.10433659364088849
0.2120959042910774 0.1040155098205547
0.20215034775378343 0.10346981522819307
0.19238420470968637 0.10269235686181481
0.18280335791817703 0.10167994231397694
0.17341357852311146 0.10043355459687657
0.16422052257649067 0.098958323017309
0.15522972763146647 0.09726324463906132
0.14644660940672616 0.09536067244659373
0.1378764585242665 0.09326560726877402
0.12952443732252045 0.09099484878839141
0.12139557674675777 0.08856607469040137
0.11349477331863145 0.08599692470409938
0.10582678618669683 0.0833041670233671
0.09839623425967753 0.08050301804517337
0.09120759342420814 0.07760667294932874
0.08426519384872727 0.07462608543367986
0.07757321737514639 0.07157001159631442
0.07113569499986394 0.06844530764695125
0.06495650444564427 0.06525744621430854
0.059039367825822475 0.06201119390374068
0.05338784940224234 0.0587113756527117
0.048005353438278275 0.055363641107934056
0.042895122148234655 0.05197514587566015
0.038060233744356575 0.048555066507485714
0.03350360058263052 0.045114882114684056
0.029227967408489597 0.04166837641339107
0.025235909703481607 0.03823133996559196
0.021529832133895532 0.03482098104904134
0.018111967102280024 0.03145508230799185
0.014984373402728013 0.028150966392430178
0.012148934980735715 0.024924354672827907
0.009607359798384785 0.021788216749655177
0.007361178805529334 0.01875171343855988
0.005411745017609493 0.015819331571410876
0.0037602327006450165 0.012990295540784421
0.0024076366639015356 0.010258319112558891
0.0013547716606548965 0.0076117334781618685
0.0006022718974137975 0.005033996247501523
0.00015059065189787502 0.0025045538975186177
0.0 0.0
0.00015059065189787502 -0.0021073303329257557
0.0006022718974137975 -0.004204556600533698
0.0013547716606548965 -0.006282118100199063
0.0024076366639015356 -0.0083314981286693
0.0037602327006450165 -0.010345642491433736
0.005411745017609493 -0.012319262875311612
0.007361178805529334 -0.014249001038381424
0.009607359798384785 -0.016133440612000702
0.012148934980735715 -0.01797296518695739
0.014984373402728013 -0.019769473348807163
0.018111967102280024 -0.021525972506131193
0.021529832133895532 -0.02324608285286585
0.025235909703481607 -0.024933489885650657
0.029227967408489597 -0.02659138801102711
0.03350360058263052 -0.028221958607924744
0.038060233744356575 -0.029825923396763692
0.042895122148234655 -0.03140220830712799
0.048005353438278275 -0.0329477446761991
0.05338784940224234 -0.03445742420542628
0.059039367825822475 -0.03592421246773426
0.06495650444564427 -0.03733941380116048
0.07113569499986394 -0.03869306907921256
0.07757321737514639 -0.0399744579943077
0.08426519384872727 -0.0411726698880577
0.09120759342420814 -0.042277202388828095
0.09839623425967753 -0.0432785455231513
0.10582678618669683 -0.044168710647990085
0.11349477331863145 -0.044941668337833106
0.12139557674675777 -0.045593666838274
0.12952443732252045 -0.04612341223658387
0.1378764585242665 -0.04653210230890201
0.14644660940672616 -0.04682331719612551
0.15522972763146647 -0.04700278072694678
0.16422052257649067 -0.04707801549016473
0.17341357852311146 -0.047057921926515166
0.18280335791817703 -0.04695231621423196
0.19238420470968637 -0.04677146324301387
0.20215034775378343 -0.04652563944348102
0.2120959042910774 -0.04622475585766865
0.2222148834901989 -0.045878065035220794
0.23250119005645137 -0.045493966755960936
0.2429486279033891 -0.04507991799428464
0.2535509038851079 -0.044642442813140434
0.26430163158700104 -0.04418722886586181
0.27519433517269654 -0.0437192896799967
0.28622245328485874 -0.04324316654369303
0.29737934299750524 -0.04276314105918536
0.30865828381745486 -0.042283429479911636
0.320052481732506 -0.04180833276412811
0.33155507330389 -0.04134232156595221
0.3431591298005543 -0.04089004263024329
0.35485766137276875 -0.04045624157170228
0.36664362126255073 -0.0400456060001354
0.3785099100483679 -0.03966254156277322
0.3904493799215649 -0.03931090090742773
0.4024548389919357 -0.03899369113318679
0.41451905561984914 -0.038712788466615945
0.42663476277231926 -0.03846868937876851
0.43879466240039156 -0.03826032508595585
0.4509914298352198 -0.03808496155079621
0.46321771820016633 -0.03793820014844103
0.475466162836291 -0.0378140857090276
0.4877293857385438 -0.03770531945152621
0.4999999999999999 -0.03760356521444103
0.512270614261456 -0.03749982918622569
0.5245338371637088 -0.037384886781981104
0.5367822817998334 -0.03724972599365576
0.54900857016478 -0.037085974847558566
0.5612053375996082 -0.03688628168829744
0.5733652372276805 -0.03664462077594925
0.5854809443801506 -0.036356501797730555
0.5975451610080642 -0.03601906981331614
0.6095506200784349 -0.03563109117339135
0.6214900899516319 -0.03519283027990926
0.6333563787374491 -0.03470583087867501
0.645142338627231 -0.03417262312756706
0.6568408701994456 -0.033596383324655546
0.6684449266961098 -0.03298057644424166
0.6799475182674938 -0.03232861226639393
0.691341716182545 -0.03164354388373214
0.7026206570024947 -0.030927832948386528
0.713777546715141 -0.030183199612624372
0.7248056648273034 -0.029410567316688938
0.7356983684129987 -0.028610104095872814
0.746449096114892 -0.027781353669603718
0.7570513720966108 -0.026923441968345906
0.7674988099435485 -0.026035338590408064
0.7777851165098009 -0.025116148456703735
0.7879040957089227 -0.024165406957908538
0.7978496522462164 -0.023183352267447888
0.8076157952903136 -0.022171151115597303
0.8171966420818224 -0.021131058879435092
0.8265864214768883 -0.020066500873565013
0.8357794774235092 -0.018982068646749152
0.8447702723685334 -0.017883432262181018
0.8535533905932737 -0.016777176329720717
0.8621235414757333 -0.015670573393743108
0.8704755626774794 -0.014571312698260692
0.8786044232532422 -0.013487205038553452
0.8865052266813687 -0.012425885223754565
0.894173213813303 -0.011394532652205603
0.9016037657403225 -0.010399627840072267
0.9087924065757916 -0.009446758780640371
0.9157348061512727 -0.008540486182720923
0.9224267826248536 -0.007684271429899004
0.928864305000136 -0.006880466009170794
0.9350434955543556 -0.006130356624937114
0.9409606321741775 -0.005434256604925845
0.9466121505977576 -0.0047916317665876755
0.9519946465617215 -0.004201247762759738
0.9571048778517655 -0.0036613260468216376
0.9619397662556433 -0.0031696968500448575
0.9664963994173694 -0.002723939707099279
0.9707720325915102 -0.0023215047912327007
0.9747640902965183 -0.0019598112888000964
0.9784701678661044 -0.0016363219208423412
0.98188803289772 -0.0013485952164422662
0.985015626597272 -0.0010943190379655468
0.9878510650192642 -0.00087133002036543
0.9903926402016152 -0.0006776239806059911
0.9926388211944706 -0.0005113620371680352
0.9945882549823906 -0.00037087629081636965
0.9962397672993549 -0.00025467765018883124
0.9975923633360985 -0.00016146696190737014
0.998645228339345 -9.014924634235109e-05
0.9993977281025862 -3.984973920244268e-05
0.9998494093481021 -9.929735695734032e-06
1.0 0.0
