1.0 0.0
0.9998494093481021 2.11067943133851e-05
0.9993977281025862 8.469997973338216e-05
0.998645228339345 0.00019157870585225254
0.9975923633360985 0.0003430124909919191
0.9962397672993549 0.0005406537078030643
0.9945882549823906 0.0007864265276715467
0.9926388211944706 0.0010824022405923094
0.9903926402016152 0.001430671696338974
0.9878510650192642 0.001833225274290649
0.985015626597272 0.0022918493458613715
0.98188803289772 0.002808045837416863
0.9784701678661044 0.0033829785311044304
0.9747640902965183 0.0040174465239880336
0.9707720325915102 0.004711882194871557
0.9664963994173694 0.005466368472826596
0.9619397662556433 0.006280668463342793
0.9571048778517655 0.007154259764043638
0.9519946465617215 0.00808636616010679
0.9466121505977576 0.009075980760754079
0.9409606321741775 0.010121876824598868
0.9350434955543556 0.011222605221016105
0.928864305000136 0.01237648031781753
0.9224267826248536 0.01358155868207262
0.9157348061512727 0.014835616968578552
0.9087924065757916 0.016136136460923486
0.9016037657403225 0.017480301746486945
0.894173213813303 0.018865019907950403
0.8865052266813687 0.020286964502246145
0.8786044232532422 0.02174264570919307
0.8704755626774794 0.023228504709069016
0.8621235414757333 0.02474102700034434
0.8535533905932737 0.026276866422107623
0.8447702723685334 0.027832969491245987
0.8357794774235092 0.029406688608120592
0.8265864214768883 0.03099587290714371
0.8171966420818224 0.032598927060281856
0.8076157952903136 0.034214831053257684
0.7978496522462164 0.03584311756979612
0.7879040957089227 0.03748380774449248
0.7777851165098009 0.03913731021255651
0.7674988099435485 0.040804292109377534
0.7570513720966108 0.04248553350959473
0.746449096114892 0.044181778394781435
0.7356983684129987 0.045893595392453454
0.7248056648273034 0.04762126019836255
0.713777546715141 0.04936466891978703
0.7026206570024947 0.05112328786763872
0.691341716182545 0.052896141021427624
0.6799475182674938 0.05468183201851578
0.6684449266961098 0.05647859362352127
0.6568408701994456 0.05828435471474026
0.645142338627231 0.06009681327129669
0.6333563787374491 0.06191350388375626
0.6214900899516319 0.06373184997079444
0.6095506200784349 0.0655491939844109
0.5975451610080642 0.06736280304943539
0.5854809443801506 0.06916985217534499
0.5733652372276805 0.07096739176729122
0.5612053375996082 0.0727523099927599
0.54900857016478 0.07452130303232496
0.5367822817998334 0.0762708668959108
0.5245338371637088 0.07799732306136054
0.512270614261456 0.07969688668032332
0.4999999999999999 0.08136578075544709
0.4877293857385438 0.08300039303562783
0.475466162836291 0.08459746512726544
0.46321771820016633 0.0861542963439507
0.4509914298352198 0.08766893902730391
0.43879466240039156 0.089140358323828
0.42663476277231926 0.09056852839157835
0.41451905561984914 0.09195443917700426
0.4024548389919357 0.09329999336279486
0.3904493799215649 0.09460778159544617
0.3785099100483679 0.09588073504688914
0.36664362126255073 0.09712166681516286
0.35485766137276875 0.0983327264472035
0.3431591298005543 0.09951480365998998
0.33155507330389 0.1006669268289039
0.320052481732506 0.10178570782535604
0.30865828381745486 0.10286488641129447
0.29737934299750524 0.10389502411157406
0.28622245328485874 0.1048633892245406
0.27519433517269654 0.10575406183251511
0.26430163158700104 0.10654827125589587
0.2535509038851079 0.10722495969299191
0.2429486279033891 0.10776154644287304
0.23250119005645137 0.1081348489164008
0.2222148834901989 0.10832210138041298
0.2120959042910774 0.10830200163555256
0.20215034775378343 0.10805571082077087
0.19238420470968637 0.1075677329882367
0.18280335791817703 0.10682660912890743
0.17341357852311146 0.10582537444814427
0.16422052257649067 0.10456174678259555
0.15522972763146647 0.10303803648330646
0.14644660940672616 0.1012607918549311
0.1378764585242665 0.0992402171300854
0.12952443732252045 0.09698941977791393
0.12139557674675777 0.09452355873240074
0.11349477331863145 0.09185897334309341
0.10582678618669683 0.0890123735554169
0.09839623425967753 0.08600016477898012
0.09120759342420814 0.08283796660645022
0.08426519384872727 0.07954036422779018
0.07757321737514639 0.07612090688932882
0.07113569499986394 0.07259234137485535
0.06495650444564427 0.06896704278135246
0.059039367825822475 0.06525758237207481
0.05338784940224234 0.061477355315901136
0.048005353438278275 0.0576411814900217
0.042895122148234655 0.05376579139402293
0.038060233744356575 0.04987011696452396
0.03350360058263052 0.045975323209539495
0.029227967408489597 0.04210453979750961
0.025235909703481607 0.038282280018775545
0.021529832133895532 0.03453356533079082
0.018111967102280024 0.030882804141465745
0.014984373402728013 0.02735250067879391
0.012148934980735715 0.023961891077569214
0.009607359798384785 0.02072561701827569
0.007361178805529334 0.017652550920263865
0.005411745017609493 0.014744880220595932
0.0037602327006450165 0.011997541989490062
0.0024076366639015356 0.009398074283001465
0.0013547716606548965 0.006926919261712378
0.0006022718974137975 0.004558177886683839
0.00015059065189787502 0.002260780002549385
0.0 0.0
0.00015059065189787502 -0.002719325653254871
0.0006022718974137975 -0.005414851844191026
0.0013547716606548965 -0.008063630076684902
0.0024076366639015356 -0.01064436466581708
0.0037602327006450165 -0.013138119765441802
0.005411745017609493 -0.015528892475487803
0.007361178805529334 -0.017804022194778037
0.009607359798384785 -0.019954417636556164
0.012148934980735715 -0.021974595319570512
0.014984373402728013 -0.023862535966973575
0.018111967102280024 -0.025619377156451566
0.021529832133895532 -0.027248970895758153
0.025235909703481607 -0.02875734280260125
0.029227967408489597 -0.03015209468459473
0.03350360058263052 -0.03144179420792618
0.038060233744356575 -0.03263539392810702
0.042895122148234655 -0.03374171740512806
0.048005353438278275 -0.03476904285329348
0.05338784940224234 -0.035724805406286184
0.059039367825822475 -0.03661542839238023
0.06495650444564427 -0.03744628289054406
0.07113569499986394 -0.03822176417803228
0.07757321737514639 -0.0389454643391461
0.08426519384872727 -0.039620413022168524
0.09120759342420814 -0.040249353670364446
0.09839623425967753 -0.04083502085562485
0.10582678618669683 -0.04138038570360686
0.11349477331863145 -0.04188884065528447
0.12139557674675777 -0.04236430155826475
0.12952443732252045 -0.042811213710938316
0.1378764585242665 -0.043234458226111806
0.14644660940672616 -0.043639165079009855
0.15522972763146647 -0.0440304485789694
0.16422052257649067 -0.044413088931474214
0.17341357852311146 -0.044791189339342945
0.18280335791817703 -0.04516784121594566
0.19238420470968637 -0.0455448302658454
0.20215034775378343 -0.04592241340039971
0.2120959042910774 -0.04629919092681315
0.2222148834901989 -0.04667209064753343
0.23250119005645137 -0.04703647110143131
0.2429486279033891 -0.047386340980939294
0.2535509038851079 -0.047714681656071324
0.26430163158700104 -0.04801385061035501
0.27519433517269654 -0.048276036249472715
0.28622245328485874 -0.048493729635858185
0.29737934299750524 -0.04866017667978917
0.30865828381745486 -0.048769775380857715
0.320052481732506 -0.04881838679858756
0.33155507330389 -0.04880353521139114
0.3431591298005543 -0.04872448183850642
0.35485766137276875 -0.04858216680253581
0.36664362126255073 -0.04837902483028279
0.3785099100483679 -0.04811869060829008
0.3904493799215649 -0.04780561883971319
0.4024548389919357 -0.04744465111195754
0.41451905561984914 -0.04704056607656056
0.42663476277231926 -0.046597650788709484
0.43879466240039156 -0.046119329238440546
0.4509914298352198 -0.04560787928379206
0.46321771820016633 -0.04506426177886739
0.475466162836291 -0.04448807630763247
0.4877293857385438 -0.043877647382668354
0.4999999999999999 -0.04323023413759597
0.512270614261456 -0.04254234634103092
0.5245338371637088 -0.04181014083685612
0.5367822817998334 -0.04102986598561941
0.54900857016478 -0.040198317867211834
0.5612053375996082 -0.03931327119208032
0.5733652372276805 -0.03837385008605255
0.5854809443801506 -0.03738080893504489
0.5975451610080642 -0.03633670084035135
0.6095506200784349 -0.03524592029348638
0.6214900899516319 -0.0341146166524703
0.6333563787374491 -0.03295048504961003
0.645142338627231 -0.03176245065830625
0.6568408701994456 -0.03056027005152554
0.6684449266961098 -0.029354079101694075
0.6799475182674938 -0.0281539200987403
0.691341716182545 -0.026969281320220008
0.7026206570024947 -0.02580868022638985
0.713777546715141 -0.024679317044188444
0.7248056648273034 -0.02358681920545359
0.7356983684129987 -0.02253508951517178
0.746449096114892 -0.021526262726782586
0.7570513720966108 -0.020560767094775948
0.7674988099435485 -0.019637480118329206
0.7777851165098009 -0.01875396164273174
0.7879040957089227 -0.017906743163181423
0.7978496522462164 -0.017091649820027116
0.8076157952903136 -0.01630413124158806
0.8171966420818224 -0.01553957895570991
0.8265864214768883 -0.014793611270982126
0.8357794774235092 -0.014062310916820423
0.8447702723685334 -0.013342405844477174
0.8535533905932737 -0.01263138891713883
0.8621235414757333 -0.011927577267844484
0.8704755626774794 -0.011230116457879798
0.8786044232532422 -0.010538937907773034
0.8865052266813687 -0.009854680207009593
0.894173213813303 -0.009178585782147837
0.9016037657403225 -0.00851238409233904
0.9087924065757916 -0.007858171215580839
0.9157348061512727 -0.007218293662062133
0.9224267826248536 -0.006595241825174431
0.928864305000136 -0.005991555988761574
0.9350434955543556 -0.005409745556318508
0.9409606321741775 -0.004852220400042545
0.9466121505977576 -0.0043212321076412825
0.9519946465617215 -0.0038188224990661924
0.9571048778517655 -0.003346777062526887
0.9619397662556433 -0.002906581799867891
0.9664963994173694 -0.002499383187735197
0.9707720325915102 -0.002125952323132349
0.9747640902965183 -0.0017866555888420381
0.9784701678661044 -0.0014814351241700836
0.98188803289772 -0.0012098028450090073
0.985015626597272 -0.0009708516180649499
0.9878510650192642 -0.0007632864318110597
0.9903926402016152 -0.0005854770793663887
0.9926388211944706 -0.0004355321101538917
0.9945882549823906 -0.00031139181161633393
0.9962397672993549 -0.00021093597946435927
0.9975923633360985 -0.00013210046356062558
0.998645228339345 -7.299515542164786e-05
0.9993977281025862 -3.201538525143924e-05
0.9998494093481021 -7.938727456538898e-06
1.0 0.0
