1.0 0.0
0.9998494093481021 1.9642650523295417e-05
0.9993977281025862 7.856761570476282e-05
0.998645228339345 0.00017676460440144056
0.9975923633360985 0.0003142129468375153
0.9962397672993549 0.0004908793819536636
0.9945882549823906 0.0007067205236732546
0.9926388211944706 0.0009616943332924634
0.9903926402016152 0.0012557845901216315
0.9878510650192642 0.0015890411536634312
0.985015626597272 0.001961636855092215
0.98188803289772 0.002373939366423272
0.9784701678661044 0.0028265936852188084
0.9747640902965183 0.0033206083054042237
0.9707720325915102 0.0038574360910761676
0.9664963994173694 0.004439039658316833
0.9619397662556433 0.005067930942035163
0.9571048778517655 0.005747175701869604
0.9519946465617215 0.00648035598265485
0.9466121505977576 0.007271486824644926
0.9409606321741775 0.008124887518483323
0.9350434955543556 0.00904501202004425
0.928864305000136 0.01003624732286653
0.9224267826248536 0.011102692166799011
0.9157348061512727 0.012247931024427809
0.9087924065757916 0.013474819533579464
0.9016037657403225 0.014785297254290543
0.894173213813303 0.016180241804342792
0.8865052266813687 0.017659375219994354
0.8786044232532422 0.019221229104850166
0.8704755626774794 0.020863170200875508
0.8621235414757333 0.02258148294962685
0.8535533905932737 0.024371500937626214
0.8447702723685334 0.02622777532670021
0.8357794774235092 0.02814426585117173
0.8265864214768883 0.030114538969846633
0.8171966420818224 0.03213195836994883
0.8076157952903136 0.03418985512758227
0.7978496522462164 0.036281668157793046
0.7879040957089227 0.03840104971897717
0.7777851165098009 0.04054193516123916
0.7674988099435485 0.04269858028455727
0.7570513720966108 0.044865573091898876
0.746449096114892 0.04703782897192482
0.7356983684129987 0.04921057916027628
0.7248056648273034 0.0513793616245974
0.713777546715141 0.05354002140919586
0.7026206570024947 0.05568872425894921
0.691341716182545 0.05782198346945563
0.6799475182674938 0.05993669593159471
0.6684449266961098 0.06203017983618254
0.6568408701994456 0.06410020402018024
0.645142338627231 0.0661449979003125
0.6333563787374491 0.06816323161201454
0.6214900899516319 0.07015395839775826
0.6095506200784349 0.07211651528587862
0.5975451610080642 0.07405038326672787
0.5854809443801506 0.07595501392348011
0.5733652372276805 0.0778296351064132
0.5612053375996082 0.07967305300761297
0.54900857016478 0.08148347120126571
0.5367822817998334 0.08325834830204687
0.5245338371637088 0.08499431451170641
0.512270614261456 0.08668716339084159
0.4999999999999999 0.08833192892386994
0.4877293857385438 0.08992304984589866
0.475466162836291 0.09145461402798104
0.46321771820016633 0.092920666411517
0.4509914298352198 0.09431555556990182
0.43879466240039156 0.09563428745970998
0.42663476277231926 0.09687285117195149
0.41451905561984914 0.09802848113196778
0.4024548389919357 0.09909982352451567
0.3904493799215649 0.10008698166037404
0.3785099100483679 0.10099142508168436
0.36664362126255073 0.1018157595897262
0.35485766137276875 0.10256336893939931
0.3431591298005543 0.10323795235596762
0.33155507330389 0.10384299390636789
0.320052481732506 0.10438120879551528
0.30865828381745486 0.1048540167759009
0.29737934299750524 0.10526109332156561
0.28622245328485874 0.10560004473086841
0.27519433517269654 0.1058662440839062
0.26430163158700104 0.10605285168181432
0.2535509038851079 0.10615102737335745
0.2429486279033891 0.10615032451367719
0.23250119005645137 0.10603923789520348
0.2222148834901989 0.10580586258119996
0.2120959042910774 0.10543860876711923
0.20215034775378343 0.10492691090300632
0.19238420470968637 0.10426186819626572
0.18280335791817703 0.10343675859402059
0.17341357852311146 0.10244737913312935
0.16422052257649067 0.10129218126559182
0.15522972763146647 0.09997218901450461
0.14644660940672616 0.09849070878686648
0.1378764585242665 0.09685286032787468
0.12952443732252045 0.09506497657555037
0.12139557674675777 0.09313393416561622
0.11349477331863145 0.09106648451409356
0.10582678618669683 0.08886865677213122
0.09839623425967753 0.08654529815669501
0.09120759342420814 0.08409980456821814
0.08426519384872727 0.08153407605735291
0.07757321737514639 0.07884870924751777
0.07113569499986394 0.07604341436589933
0.06495650444564427 0.07311762045246953
0.059039367825822475 0.07007121100810312
0.05338784940224234 0.06690531601034956
0.048005353438278275 0.06362307664539682
0.042895122148234655 0.06023029744330505
0.038060233744356575 0.05673590718630357
0.03350360058263052 0.053152164611935254
0.029227967408489597 0.049494566395791056
0.025235909703481607 0.04578144132494838
0.021529832133895532 0.04203324358950907
0.018111967102280024 0.03827158704411637
0.014984373402728013 0.03451808838585091
0.012148934980735715 0.030793107926504897
0.009607359798384785 0.02711448992446326
0.007361178805529334 0.02349640886094609
0.005411745017609493 0.01994842297844229
0.0037602327006450165 0.01647482210274493
0.0024076366639015356 0.013074334365098628
0.0013547716606548965 0.009740227818063073
0.0006022718974137975 0.006460810588952808
0.00015059065189787502 0.0032203000023062786
0.0 0.0
0.00015059065189787502 -0.0018871876381542929
0.0006022718974137975 -0.0037549811218893035
0.0013547716606548965 -0.0055847476784216254
0.0024076366639015356 -0.007359333458165882
0.0037602327006450165 -0.00906369644733792
0.005411745017609493 -0.010685419837110893
0.007361178805529334 -0.01221507919372442
0.009607359798384785 -0.013646446801121015
0.012148934980735715 -0.014976527596197189
0.014984373402728013 -0.01620543236561848
0.018111967102280024 -0.017336104489827624
0.021529832133895532 -0.01837392572378963
0.025235909703481607 -0.0193262336261971
0.029227967408489597 -0.020201787783296725
0.03350360058263052 -0.021010223616032987
0.038060233744356575 -0.021761531231049857
0.042895122148234655 -0.02246559262987867
0.048005353438278275 -0.02313180399851736
0.05338784940224234 -0.023768801324031367
0.059039367825822475 -0.024384297934234755
0.06495650444564427 -0.024985032529233245
0.07113569499986394 -0.02557681669412253
0.07757321737514639 -0.026164662534930723
0.08426519384872727 -0.026752964645994533
0.09120759342420814 -0.02734570661827937
0.09839623425967753 -0.027946661054275287
0.10582678618669683 -0.02855955365613719
0.11349477331863145 -0.029188166251702403
0.12139557674675777 -0.029836360242646263
0.12952443732252045 -0.030508010327434623
0.1378764585242665 -0.03120684774471188
0.14644660940672616 -0.031936221884181465
0.15522972763146647 -0.03269879808147576
0.16422052257649067 -0.03349621695672911
0.17341357852311146 -0.03432874609284436
0.18280335791817703 -0.0351949576701901
0.19238420470968637 -0.03609146558798312
0.20215034775378343 -0.037012752561049155
0.2120959042910774 -0.03795111188667355
0.2222148834901989 -0.03889672046854785
0.23250119005645137 -0.03983784990343586
0.2429486279033891 -0.04076121177047721
0.2535509038851079 -0.04165242258629498
0.26430163158700104 -0.04249656408549049
0.27519433517269654 -0.04327880637617506
0.28622245328485874 -0.04398505579088005
0.29737934299750524 -0.0446025863990812
0.30865828381745486 -0.04512061442798415
0.320052481732506 -0.045530778254244265
0.33155507330389 -0.04582749292280302
0.3431591298005543 -0.04600815682389237
0.35485766137276875 -0.0460731985229898
0.36664362126255073 -0.046025962960823584
0.3785099100483679 -0.04587244742374152
0.3904493799215649 -0.04562090793989951
0.4024548389919357 -0.04528136527872394
0.41451905561984914 -0.04486504586642378
0.42663476277231926 -0.04438379623120636
0.43879466240039156 -0.04384950985230916
0.4509914298352198 -0.043273602557569346
0.46321771820016633 -0.04266656719442527
0.475466162836291 -0.04203763070784792
0.4877293857385438 -0.041394527685841696
0.4999999999999999 -0.040743394677464434
0.512270614261456 -0.04008877998562025
0.5245338371637088 -0.03943375498657338
0.5367822817998334 -0.03878010602403996
0.54900857016478 -0.03812858109750679
0.5612053375996082 -0.03747916323476801
0.5733652372276805 -0.0368313426998063
0.5854809443801506 -0.036184362898658166
0.5975451610080642 -0.03553741965360815
0.6095506200784349 -0.03488979988984594
0.6214900899516319 -0.03424095306563981
0.6333563787374491 -0.03359049616434795
0.645142338627231 -0.03293816004868317
0.6568408701994456 -0.032283690820992327
0.6684449266961098 -0.03162672403274139
0.6799475182674938 -0.030966651808190825
0.691341716182545 -0.030302503055050205
0.7026206570024947 -0.02963285499647424
0.713777546715141 -0.028955790533339795
0.7248056648273034 -0.02826891085369198
0.7356983684129987 -0.0275694067842863
0.746449096114892 -0.026854186225826356
0.7570513720966108 -0.02612004923024386
0.7674988099435485 -0.025363897412090955
0.7777851165098009 -0.024582960878585882
0.7879040957089227 -0.023775024011762506
0.7978496522462164 -0.02293863137121215
0.8076157952903136 -0.02207325666180125
0.8171966420818224 -0.021179420917475638
0.8265864214768883 -0.020258750440888547
0.8357794774235092 -0.019313970159859865
0.8447702723685334 -0.018348833413022764
0.8535533905932737 -0.017367994253324092
0.8621235414757333 -0.01637683270077833
0.8704755626774794 -0.015381246615990172
0.8786044232532422 -0.014387425756359038
0.8865052266813687 -0.013401624011588203
0.894173213813303 -0.012429944833690743
0.9016037657403225 -0.01147815265384001
0.9087924065757916 -0.010551519900546199
0.9157348061512727 -0.00965471546493273
0.9224267826248536 -0.00879173650095966
0.928864305000136 -0.007965881697779252
0.9350434955543556 -0.007179760969199713
0.9409606321741775 -0.006435334143488756
0.9466121505977576 -0.005733969874227936
0.9519946465617215 -0.00507651568285127
0.9571048778517655 -0.004463370724046399
0.9619397662556433 -0.003894554372212789
0.9664963994173694 -0.0033697658173257156
0.9707720325915102 -0.0028884322400764026
0.9747640902965183 -0.0024497455035492324
0.9784701678661044 -0.002052689367578994
0.98188803289772 -0.0016960607700900426
0.985015626597272 -0.0013784895711902831
0.9878510650192642 -0.0010984612553901851
0.9903926402016152 -0.0008543464644016577
0.9926388211944706 -0.000644440004239353
0.9945882549823906 -0.0004670103228228505
0.9962397672993549 -0.00032035862065287536
0.9975923633360985 -0.00020288498645379185
0.998645228339345 -0.00011315747685465547
0.9993977281025862 -4.997907685391462e-05
0.9998494093481021 -1.2447113764031117e-05
1.0 0.0
