1.0 0.0
0.9998494093481021 2.8661855186328862e-05
0.9993977281025862 0.00011447095816947054
0.998645228339345 0.00025689928486262925
0.9975923633360985 0.00045507229692074303
0.9962397672993549 0.0007077803666580379
0.9945882549823906 0.0010135005105875881
0.9926388211944706 0.0013704328417789922
0.9903926402016152 0.0017765557213022202
0.9878510650192642 0.0022297022268841526
0.985015626597272 0.0027276583747075714
0.98188803289772 0.0032682807649211973
0.9784701678661044 0.0038496283077390984
0.9747640902965183 0.004470099817896585
0.9707720325915102 0.005128566943296649
0.9664963994173694 0.0058244904802265815
0.9619397662556433 0.006558007895084416
0.9571048778517655 0.007329980966850385
0.9519946465617215 0.008141994880682712
0.9466121505977576 0.008996303679109469
0.9409606321741775 0.009895721406674643
0.9350434955543556 0.010843463144913072
0.928864305000136 0.011842944934790229
0.9224267826248536 0.012897555813874568
0.9157348061512727 0.014010418386430913
0.9087924065757916 0.015184156121605953
0.9016037657403225 0.01642068570214844
0.894173213813303 0.017721051156603468
0.8865052266813687 0.019085313314510324
0.8786044232532422 0.02051250361075621
0.8704755626774794 0.022000645858578482
0.8621235414757333 0.023546843835572994
0.8535533905932737 0.02514742695010883
0.8447702723685334 0.026798141423974766
0.8357794774235092 0.028494370808983236
0.8265864214768883 0.030231367588703102
0.8171966420818224 0.03200447727308555
0.8076157952903136 0.03380933776103563
0.7978496522462164 0.035642039630784404
0.7879040957089227 0.03749923707029319
0.7777851165098009 0.03937820391507154
0.7674988099435485 0.0412768341939302
0.7570513720966108 0.04319359117122248
0.746449096114892 0.04512741265642904
0.7356983684129987 0.04707758298351362
0.7248056648273034 0.04904358335253204
0.713777546715141 0.05102493215766533
0.7026206570024947 0.053021025654266835
0.691341716182545 0.055030987146281685
0.6799475182674938 0.05705353021431324
0.6684449266961098 0.05908683881351134
0.6568408701994456 0.06112846479604411
0.645142338627231 0.06317524192632777
0.6333563787374491 0.06522321500040164
0.6214900899516319 0.06726758332868718
0.6095506200784349 0.06930265948484592
0.5975451610080642 0.07132184657687525
0.5854809443801506 0.07331763992892087
0.5733652372276805 0.07528166144956135
0.5612053375996082 0.07720473655555843
0.54900857016478 0.07907702382093824
0.5367822817998334 0.08088820615638938
0.5245338371637088 0.08262774910855479
0.512270614261456 0.08428522685095742
0.4999999999999999 0.08585070991764415
0.4877293857385438 0.0873152012468674
0.475466162836291 0.088671099393431
0.46321771820016633 0.08991266070219109
0.4509914298352198 0.09103642671817253
0.43879466240039156 0.09204157998414818
0.42663476277231926 0.09293019132121516
0.41451905561984914 0.09370732511986535
0.4024548389919357 0.09438097617686503
0.3904493799215649 0.09496182191697693
0.3785099100483679 0.09546278678817939
0.36664362126255073 0.09589843023324676
0.35485766137276875 0.09628418468384649
0.3431591298005543 0.09663548411549865
0.33155507330389 0.09696683544988473
0.320052481732506 0.0972908932309053
0.30865828381745486 0.097617601533792
0.29737934299750524 0.09795346537606436
0.28622245328485874 0.09830100683524245
0.27519433517269654 0.09865844899822135
0.26430163158700104 0.09901965462657793
0.2535509038851079 0.09937432731449922
0.2429486279033891 0.0997084625662459
0.23250119005645137 0.10000501643844742
0.2222148834901989 0.10024474200479233
0.2120959042910774 0.10040713056908292
0.20215034775378343 0.10047138660659281
0.19238420470968637 0.10041736370736619
0.18280335791817703 0.10022639360742651
0.17341357852311146 0.09988195138254126
0.16422052257649067 0.09937011609533158
0.15522972763146647 0.09867980615023918
0.14644660940672616 0.09780279044239111
0.1378764585242665 0.09673349798084568
0.12952443732252045 0.0954686678966182
0.12139557674675777 0.09400689667174336
0.11349477331863145 0.09234814849340062
0.10582678618669683 0.0904932968428047
0.09839623425967753 0.08844376043213627
0.09120759342420814 0.08620128477897429
0.08426519384872727 0.08376790312672867
0.07757321737514639 0.08114608875810923
0.07113569499986394 0.07833908713805954
0.06495650444564427 0.07535139314815924
0.059039367825822475 0.07218931834450784
0.05338784940224234 0.06886157787791003
0.048005353438278275 0.06537981821191438
0.042895122148234655 0.06175900618963987
0.038060233744356575 0.058017607710781745
0.03350360058263052 0.05417749985302977
0.029227967408489597 0.050263582486913705
0.025235909703481607 0.04630308238066319
0.021529832133895532 0.042324572042594336
0.018111967102280024 0.03835675437573184
0.014984373402728013 0.034427089854234025
0.012148934980735715 0.030560362828636833
0.009607359798384785 0.026777295653965815
0.007361178805529334 0.023093322217887867
0.005411745017609493 0.01951762555716422
0.0037602327006450165 0.016052527916037486
0.0024076366639015356 0.012693297025602124
0.0013547716606548965 0.009428401554834678
0.0006022718974137975 0.006240214194359662
0.00015059065189787502 0.003106125648750772
0.0 0.0
0.00015059065189787502 -0.0028370262267773333
0.0006022718974137975 -0.005646643905419233
0.0013547716606548965 -0.00840234920069391
0.0024076366639015356 -0.011079401141422859
0.0037602327006450165 -0.013655589707642486
0.005411745017609493 -0.016111876246766115
0.007361178805529334 -0.018432876911936118
0.009607359798384785 -0.020607169915923488
0.012148934980735715 -0.022627418560588905
0.014984373402728013 -0.024490313428594934
0.018111967102280024 -0.026196347992394297
0.021529832133895532 -0.027749451437164386
0.025235909703481607 -0.02915651004898967
0.029227967408489597 -0.030426813584676568
0.03350360058263052 -0.03157146530780639
0.038060233744356575 -0.032602793757325416
0.042895122148234655 -0.033533800943483835
0.048005353438278275 -0.03437767588563945
0.05338784940224234 -0.03514739474412269
0.059039367825822475 -0.03585541992023283
0.06495650444564427 -0.03651350115606179
0.07113569499986394 -0.0371325726352663
0.07757321737514639 -0.037722732104748746
0.08426519384872727 -0.03829328174488322
0.09120759342420814 -0.03885280640175774
0.09839623425967753 -0.03940926315849032
0.10582678618669683 -0.03997005714977187
0.11349477331863145 -0.0405420818798844
0.12139557674675777 -0.04113170774668436
0.12952443732252045 -0.04174470948060416
0.1378764585242665 -0.04238613112245906
0.14644660940672616 -0.043060095252417635
0.15522972763146647 -0.04376957069551542
0.16422052257649067 -0.044516119166906704
0.17341357852311146 -0.045299645693619175
0.18280335791817703 -0.04611817973230879
0.19238420470968637 -0.0469677134684143
0.20215034775378343 -0.04784212082687169
0.2120959042910774 -0.04873317546753496
0.2222148834901989 -0.04963067890527871
0.23250119005645137 -0.050522701481670144
0.2429486279033891 -0.05139592993821376
0.2535509038851079 -0.052236106574686345
0.26430163158700104 -0.0530285371849524
0.27519433517269654 -0.05375863883545594
0.28622245328485874 -0.05441249463951501
0.29737934299750524 -0.05497738134805994
0.30865828381745486 -0.055442236968895116
0.320052481732506 -0.05579803965201789
0.33155507330389 -0.0560380754201643
0.3431591298005543 -0.05615808046240981
0.35485766137276875 -0.056156252968276296
0.36664362126255073 -0.05603313908605911
0.3785099100483679 -0.055791406736911166
0.3904493799215649 -0.05543552894030492
0.4024548389919357 -0.054971404348518035
0.41451905561984914 -0.05440594635424451
0.42663476277231926 -0.05374667314089857
0.43879466240039156 -0.05300132933706529
0.4509914298352198 -0.05217756569909278
0.46321771820016633 -0.051282696882892574
0.475466162836291 -0.05032354946432948
0.4877293857385438 -0.04930640364360913
0.4999999999999999 -0.04823702330444167
0.512270614261456 -0.047120761070128574
0.5245338371637088 -0.045962718408349736
0.5367822817998334 -0.04476793624991793
0.54900857016478 -0.043541589383484854
0.5612053375996082 -0.04228915822889825
0.5733652372276805 -0.04101655440651377
0.5854809443801506 -0.03973018151601761
0.5975451610080642 -0.03843691923074114
0.6095506200784349 -0.0371440265694961
0.6214900899516319 -0.03585896830715471
0.6333563787374491 -0.03458917618555153
0.645142338627231 -0.033341763191968916
0.6568408701994456 -0.032123214096320254
0.6684449266961098 -0.03093907825339614
0.6799475182674938 -0.02979369115308051
0.691341716182545 -0.028689949323467013
0.7026206570024947 -0.027629159155474856
0.713777546715141 -0.02661097440922332
0.7248056648273034 -0.025633430119711993
0.7356983684129987 -0.024693072979101203
0.746449096114892 -0.023785180711003603
0.7570513720966108 -0.022904056121194487
0.7674988099435485 -0.02204337597937061
0.7777851165098009 -0.021196571096451712
0.7879040957089227 -0.02035721218175761
0.7978496522462164 -0.019519376376938125
0.8076157952903136 -0.018677971662489024
0.8171966420818224 -0.017829000339089785
0.8265864214768883 -0.01696974808024947
0.8357794774235092 -0.016098891118917238
0.8447702723685334 -0.015216520408353734
0.8535533905932737 -0.014324087535975333
0.8621235414757333 -0.0134242822783152
0.8704755626774794 -0.012520855580280248
0.8786044232532422 -0.011618404172927792
0.8865052266813687 -0.010722133914212856
0.894173213813303 -0.009837618303709189
0.9016037657403225 -0.008970566682187943
0.9087924065757916 -0.008126613689585824
0.9157348061512727 -0.007311138004638959
0.9224267826248536 -0.006529114642132888
0.928864305000136 -0.005785001541952118
0.9350434955543556 -0.005082658196146277
0.9409606321741775 -0.004425291886199427
0.9466121505977576 -0.0038154258918429297
0.9519946465617215 -0.0032548838134533486
0.9571048778517655 -0.002744784833330395
0.9619397662556433 -0.0022855461367640036
0.9664963994173694 -0.001876890557055984
0.9707720325915102 -0.0015178594942857936
0.9747640902965183 -0.0012068329770883793
0.9784701678661044 -0.0009415601148365094
0.98188803289772 -0.0007192039141464987
0.985015626597272 -0.0005364043867782608
0.9878510650192642 -0.0003893630352602811
0.9903926402016152 -0.0002739502496460755
0.9926388211944706 -0.00018583505680516926
0.9945882549823906 -0.00012063427589834804
0.9962397672993549 -7.40757347223823e-05
0.9975923633360985 -4.2168083692201634e-05
0.998645228339345 -2.1368173197174202e-05
0.9993977281025862 -8.736144387129678e-06
0.9998494093481021 -2.0684499170038007e-06
1.0 0.0
