1.0 0.0
0.9998494093481021 2.3104509121853374e-05
0.9993977281025862 9.251468330156564e-05
0.998645228339345 0.0002085133597432195
0.9975923633360985 0.0003715493616162365
0.9962397672993549 0.0005822073443958286
0.9945882549823906 0.0008411724217947218
0.9926388211944706 0.001149195164517003
0.9903926402016152 0.0015070625706376359
0.9878510650192642 0.001915579724052731
0.985015626597272 0.002375565181190107
0.98188803289772 0.0028878608632402886
0.9784701678661044 0.003453354677154257
0.9747640902965183 0.004073011590879971
0.9707720325915102 0.004747906801715661
0.9664963994173694 0.0054792532777083736
0.9619397662556433 0.006268415556325222
0.9571048778517655 0.007116902373637669
0.9519946465617215 0.00802633245850227
0.9466121505977576 0.008998370509614757
0.9409606321741775 0.010034633704645725
0.9350434955543556 0.011136572700762381
0.928864305000136 0.012305334552462837
0.9224267826248536 0.013541617870086052
0.9157348061512727 0.014845532493107817
0.9087924065757916 0.016216476674458125
0.9016037657403225 0.017653044116570853
0.894173213813303 0.01915297117306428
0.8865052266813687 0.02071313129815753
0.8786044232532422 0.022329579701056704
0.8704755626774794 0.023997646569959872
0.8621235414757333 0.02571207266250857
0.8535533905932737 0.027467177020325105
0.8447702723685334 0.029257043511639033
0.8357794774235092 0.03107571119338965
0.8265864214768883 0.032917353322814875
0.8171966420818224 0.034776431275498225
0.8076157952903136 0.03664781249797869
0.7978496522462164 0.038526845625862734
0.7879040957089227 0.04040939058521767
0.7777851165098009 0.042291806332744354
0.7674988099435485 0.04417090332119597
0.7570513720966108 0.04604387128399325
0.746449096114892 0.04790819510298117
0.7356983684129987 0.04976157209588982
0.7248056648273034 0.05160184296359872
0.713777546715141 0.053426946000943644
0.7026206570024947 0.05523490031755959
0.691341716182545 0.05702381921199927
0.6799475182674938 0.05879195007023559
0.6684449266961098 0.060537732830637736
0.6568408701994456 0.06225986574483001
0.645142338627231 0.06395736533061895
0.6333563787374491 0.06562960735203209
0.6214900899516319 0.06727633745249309
0.6095506200784349 0.06889764355976778
0.5975451610080642 0.07049388700354926
0.5854809443801506 0.07206559488090443
0.5733652372276805 0.0736133218880476
0.5612053375996082 0.0751374948774738
0.54900857016478 0.07663825710411207
0.5367822817998334 0.07811533092394793
0.5245338371637088 0.07956791723442178
0.512270614261456 0.08099464708394209
0.4999999999999999 0.0823935957976068
0.4877293857385438 0.08376236311696202
0.475466162836291 0.0850982149258695
0.46321771820016633 0.0863982740013567
0.4509914298352198 0.08765973984262562
0.43879466240039156 0.08888011192855814
0.42663476277231926 0.0900573875409661
0.41451905561984914 0.09119020514565503
0.4024548389919357 0.09227790751567293
0.3904493799215649 0.09332050522240702
0.3785099100483679 0.09431853035172306
0.36664362126255073 0.09527278152349652
0.35485766137276875 0.09618397342884195
0.3431591298005543 0.09705231590257983
0.33155507330389 0.09787705772449135
0.320052481732506 0.09865603768768325
0.30865828381745486 0.09938528900719151
0.29737934299750524 0.10005874223075342
0.28622245328485874 0.10066806624976216
0.27519433517269654 0.10120267705951866
0.26430163158700104 0.10164993032318882
0.2535509038851079 0.10199549771094181
0.2429486279033891 0.10222390989114384
0.23250119005645137 0.10231923260216583
0.2222148834901989 0.1022658281081139
0.2120959042910774 0.10204914406340998
0.20215034775378343 0.10165646658714292
0.19238420470968637 0.10107757493215963
0.18280335791817703 0.10030524172925474
0.17341357852311146 0.09933553500256412
0.16422052257649067 0.09816789501827304
0.15522972763146647 0.09680497907056916
0.14644660940672616 0.0952522886767171
0.1378764585242665 0.09351761429398114
0.12952443732252045 0.09161035052682313
0.12139557674675777 0.08954074800653605
0.11349477331863145 0.08731917523456874
0.10582678618669683 0.08495546377652717
0.09839623425967753 0.08245840303085791
0.09120759342420814 0.07983543683916955
0.08426519384872727 0.07709259460583784
0.07757321737514639 0.07423466609994357
0.07113569499986394 0.071265603910954
0.06495650444564427 0.06818911304830856
0.059039367825822475 0.06500936584917684
0.05338784940224234 0.06173176439198711
0.048005353438278275 0.05836366375614515
0.042895122148234655 0.05491496883363636
0.038060233744356575 0.05139852533557528
0.03350360058263052 0.04783024167805283
0.029227967408489597 0.04422890131465076
0.025235909703481607 0.04061565285317066
0.021529832133895532 0.03701319547542808
0.018111967102280024 0.03344470699886923
0.014984373402728013 0.02993258856643354
0.012148934980735715 0.026497120844082966
0.009607359798384785 0.0231551396395257
0.007361178805529334 0.01991884261306556
0.005411745017609493 0.016794832646975524
0.0037602327006450165 0.013783487789559208
0.0024076366639015356 0.010878723696245356
0.0013547716606548965 0.008068184140672112
0.0006022718974137975 0.005333861062424981
0.00015059065189787502 0.00265311072941781
0.0 0.0
0.00015059065189787502 -0.0022675942193521024
0.0006022718974137975 -0.004517317553631094
0.0013547716606548965 -0.006732001490291839
0.0024076366639015356 -0.008895837972664142
0.0037602327006450165 -0.010994952114044386
0.005411745017609493 -0.013017854637938418
0.007361178805529334 -0.014955747814771079
0.009607359798384785 -0.01680266918424716
0.012148934980735715 -0.018555468921521535
0.014984373402728013 -0.02021362845285658
0.018111967102280024 -0.021778938970043522
0.021529832133895532 -0.023255068006788726
0.025235909703481607 -0.024647049518819103
0.029227967408489597 -0.02596073742122806
0.03350360058263052 -0.027202263965168602
0.038060233744356575 -0.028377542604266108
0.042895122148234655 -0.029491850276780817
0.048005353438278275 -0.030549516711736044
0.05338784940224234 -0.0315537390549057
0.059039367825822475 -0.03250652955519238
0.06495650444564427 -0.033408793098033206
0.07113569499986394 -0.034260520890676466
0.07757321737514639 -0.03506107742205751
0.08426519384872727 -0.03580955065623126
0.09120759342420814 -0.03650513082531877
0.09839623425967753 -0.03714748150781887
0.10582678618669683 -0.03773706801552549
0.11349477331863145 -0.038275412326248745
0.12139557674675777 -0.03876525051555873
0.12952443732252045 -0.039210577281809475
0.1378764585242665 -0.03961657199296343
0.14644660940672616 -0.03998941088524127
0.15522972763146647 -0.040335979760737314
0.16422052257649067 -0.0406635099573586
0.17341357852311146 -0.04097916680550936
0.18280335791817703 -0.04128962371770999
0.19238420470968637 -0.041600656169417244
0.20215034775378343 -0.04191678805071737
0.2120959042910774 -0.042241018373150106
0.2222148834901989 -0.042574649506986154
0.23250119005645137 -0.042917229599585376
0.2429486279033891 -0.04326661232561024
0.2535509038851079 -0.043619127464321755
0.26430163158700104 -0.04396984681555324
0.27519433517269654 -0.044312922418508816
0.28622245328485874 -0.04464196856123557
0.29737934299750524 -0.04495045611447948
0.30865828381745486 -0.04523208752008473
0.320052481732506 -0.04548112329793543
0.33155507330389 -0.045692635953975574
0.3431591298005543 -0.04586267420614465
0.35485766137276875 -0.04598832885221669
0.36664362126255073 -0.04606770062425012
0.3785099100483679 -0.04609977920077894
0.3904493799215649 -0.04608425039551824
0.4024548389919357 -0.046021254718809794
0.41451905561984914 -0.045911124478133836
0.42663476277231926 -0.04575412801105439
0.43879466240039156 -0.045550248422675625
0.4509914298352198 -0.04529902046341592
0.46321771820016633 -0.044999443290348294
0.475466162836291 -0.04464997935700824
0.4877293857385438 -0.04424864126409433
0.4999999999999999 -0.04379315984654111
0.512270614261456 -0.04328121884885475
0.5245338371637088 -0.0427107349661577
0.5367822817998334 -0.04208015739272315
0.54900857016478 -0.04138875873409832
0.5612053375996082 -0.04063688940025731
0.5733652372276805 -0.03982617037245372
0.5854809443801506 -0.03895960426721383
0.5975451610080642 -0.0380415914490451
0.6095506200784349 -0.03707784595415314
0.6214900899516319 -0.036075214466411924
0.6333563787374491 -0.03504140978543711
0.645142338627231 -0.033984677429784504
0.6568408701994456 -0.03291341960814815
0.6684449266961098 -0.03183580430128619
0.6799475182674938 -0.030759388351205195
0.691341716182545 -0.029690782187897363
0.7026206570024947 -0.028635380287506187
0.713777546715141 -0.02759717599516963
0.7248056648273034 -0.026578672467837447
0.7356983684129987 -0.025580893815711943
0.746449096114892 -0.024603492717832152
0.7570513720966108 -0.023644943521766902
0.7674988099435485 -0.02270280370599678
0.7777851165098009 -0.021774022063895927
0.7879040957089227 -0.02085526937965691
0.7978496522462164 -0.019943266846874065
0.8076157952903136 -0.019035088980226048
0.8171966420818224 -0.018128421064452543
0.8265864214768883 -0.01722175589911544
0.8357794774235092 -0.016314520251252358
0.8447702723685334 -0.015407127480902807
0.8535533905932737 -0.014500958710278946
0.8621235414757333 -0.01359828016432571
0.8704755626774794 -0.012702108505977295
0.8786044232532422 -0.011816038834092865
0.8865052266813687 -0.010944051360084915
0.894173213813303 -0.010090312634303556
0.9016037657403225 -0.009258985699241142
0.9087924065757916 -0.00845406096530843
0.9157348061512727 -0.007679216282820139
0.9224267826248536 -0.006937711012474511
0.928864305000136 -0.006232315270365527
0.9350434955543556 -0.0055652722993660576
0.9409606321741775 -0.004938289381797675
0.9466121505977576 -0.004352551047275407
0.9519946465617215 -0.0038087476229850194
0.9571048778517655 -0.00330711238874272
0.9619397662556433 -0.0028474616030476937
0.9664963994173694 -0.0024292332469223804
0.9707720325915102 -0.002051522227288527
0.9747640902965183 -0.0017131117111740192
0.9784701678661044 -0.0014125019622976615
0.98188803289772 -0.0011479393044587644
0.985015626597272 -0.0009174484928623147
0.9878510650192642 -0.0007188717699907324
0.9903926402016152 -0.0005499172398705773
0.9926388211944706 -0.00040821801840797145
0.9945882549823906 -0.0002914020790038386
0.9962397672993549 -0.00019717102639977578
0.9975923633360985 -0.0001233844280516611
0.998645228339345 -6.81450289129844e-05
0.9993977281025862 -2.9879350614766187e-05
0.9998494093481021 -7.407947213894625e-06
1.0 0.0
