1.0 0.0
0.9998494093481021 2.237318591399874e-05
0.9993977281025862 8.960167907144001e-05
0.998645228339345 0.00020200469712048898
0.9975923633360985 0.00036009007631599305
0.9962397672993549 0.0005645216774991085
0.9945882549823906 0.0008160805849773818
0.9926388211944706 0.001115625697220458
0.9903926402016152 0.0014640593371613908
0.9878510650192642 0.001862302664512611
0.985015626597272 0.0023112840471929633
0.98188803289772 0.0028119413497586887
0.9784701678661044 0.003365236616478593
0.9747640902965183 0.003972179208403965
0.9707720325915102 0.004633851446635588
0.9664963994173694 0.005351429527470647
0.9619397662556433 0.006126192136996459
0.9571048778517655 0.006959509916255303
0.9519946465617215 0.007852810692878935
0.9466121505977576 0.008807518043923584
0.9409606321741775 0.009824964007834688
0.9350434955543556 0.010906280248681293
0.928864305000136 0.01205227527052821
0.9224267826248536 0.013263307961519196
0.9157348061512727 0.01453916944532938
0.9087924065757916 0.015878985660890202
0.9016037657403225 0.017281152144976615
0.894173213813303 0.018743310180124168
0.8865052266813687 0.02026236997836787
0.8786044232532422 0.021834582232178865
0.8704755626774794 0.02345565462372353
0.8621235414757333 0.025120905253643373
0.8535533905932737 0.026825440950603775
0.8447702723685334 0.028564345520882616
0.8357794774235092 0.030332861553775396
0.8265864214768883 0.03212654962176423
0.8171966420818224 0.03394141063155374
0.8076157952903136 0.03577396053136261
0.7978496522462164 0.037621251223559006
0.7879040957089227 0.03948083689027434
0.7777851165098009 0.04135069044285881
0.7674988099435485 0.04322907985608577
0.7570513720966108 0.045114418187027945
0.746449096114892 0.04700510365314273
0.7356983684129987 0.048899366959475214
0.7248056648273034 0.050795142021376895
0.713777546715141 0.05268997343732871
0.7026206570024947 0.05458096983796044
0.691341716182545 0.05646480705209799
0.6799475182674938 0.058337779483793026
0.6684449266961098 0.06019589282846183
0.6568408701994456 0.062034986886918504
0.645142338627231 0.06385087427813471
0.6333563787374491 0.06563947965632878
0.6214900899516319 0.06739696474790469
0.6095506200784349 0.0691198270507642
0.5975451610080642 0.07080496406929332
0.5854809443801506 0.07244969998660394
0.5733652372276805 0.07405177705855405
0.5612053375996082 0.07560931904680696
0.54900857016478 0.07712077800840497
0.5367822817998334 0.07858487815213613
0.5245338371637088 0.08000057086522258
0.512270614261456 0.08136701325443638
0.4999999999999999 0.08268357874973865
0.4877293857385438 0.08394990287034268
0.475466162836291 0.08516596077257836
0.46321771820016633 0.08633216647881091
0.4509914298352198 0.08744947760630987
0.43879466240039156 0.08851948483934777
0.42663476277231926 0.08954446306278414
0.41451905561984914 0.09052736153106221
0.4024548389919357 0.09147171392026485
0.3904493799215649 0.09238145549967619
0.3785099100483679 0.09326064350856678
0.36664362126255073 0.09411308735548184
0.35485766137276875 0.09494190643573315
0.3431591298005543 0.09574904399445863
0.33155507330389 0.09653477431821596
0.320052481732506 0.09729724648615533
0.30865828381745486 0.09803211004926438
0.29737934299750524 0.09873226577117922
0.28622245328485874 0.09938777781846306
0.27519433517269654 0.09998597285880105
0.26430163158700104 0.10051173719766018
0.2535509038851079 0.10094800654625234
0.2429486279033891 0.10127642575716059
0.23250119005645137 0.10147813954420165
0.2222148834901989 0.10153466147799112
0.2120959042910774 0.10142875890858458
0.20215034775378343 0.10114528707331981
0.19238420470968637 0.10067190720054385
0.18280335791817703 0.09999963106135783
0.17341357852311146 0.09912314769902483
0.16422052257649067 0.09804090594940289
0.15522972763146647 0.09675494732708853
0.14644660940672616 0.09527050599563402
0.1378764585242665 0.09359541377840586
0.12952443732252045 0.0917393664192057
0.12139557674675777 0.0897131207029797
0.11349477331863145 0.08752769913827542
0.10582678618669683 0.08519367879207271
0.09839623425967753 0.08272063333548581
0.09120759342420814 0.08011678290493968
0.08426519384872727 0.0773888861996973
0.07757321737514639 0.07454238511264945
0.07113569499986394 0.07158178635757959
0.06495650444564427 0.06851123947925424
0.059039367825822475 0.06533524878134421
0.05338784940224234 0.06205944031161229
0.048005353438278275 0.058691295872131476
0.042895122148234655 0.05524076519617844
0.038060233744356575 0.05172067530217371
0.03350360058263052 0.04814687212169043
0.029227967408489597 0.0445380525251081
0.025235909703481607 0.04091527285908728
0.021529832133895532 0.03730115056390388
0.018111967102280024 0.033718805557163105
0.014984373402728013 0.030190615017241546
0.012148934980735715 0.02673687636971537
0.009607359798384785 0.023374486550113278
0.007361178805529334 0.02011574955540821
0.005411745017609493 0.016967418312112417
0.0037602327006450165 0.013930061295656264
0.0024076366639015356 0.010997820340566773
0.0013547716606548965 0.008158595681332365
0.0006022718974137975 0.005394660071691066
0.00015059065189787502 0.002683668835521163
0.0 0.0
0.00015059065189787502 -0.002203819894196921
0.0006022718974137975 -0.0043915474972245384
0.0013547716606548965 -0.006547735328891372
0.0024076366639015356 -0.008658184266391207
0.0037602327006450165 -0.010710467585756623
0.005411745017609493 -0.012694343075984013
0.007361178805529334 -0.014602028972160503
0.009607359798384785 -0.01642832935136886
0.012148934980735715 -0.0181706055082217
0.014984373402728013 -0.019828600849042373
0.018111967102280024 -0.021404137178559737
0.021529832133895532 -0.022900709118634593
0.025235909703481607 -0.024323010127967164
0.029227967408489597 -0.025676427684498904
0.03350360058263052 -0.0269665463532948
0.038060233744356575 -0.028198695625636875
0.042895122148234655 -0.0293775747473599
0.048005353438278275 -0.030506979644683015
0.05338784940224234 -0.0315896480833161
0.059039367825822475 -0.032627229086261006
0.06495650444564427 -0.03362037220062331
0.07113569499986394 -0.03456892228101602
0.07757321737514639 -0.03547219684123375
0.08426519384872727 -0.03632931640505828
0.09120759342420814 -0.037139554187944734
0.09839623425967753 -0.037902670186183915
0.10582678618669683 -0.03861919643031038
0.11349477331863145 -0.039290644627545133
0.12139557674675777 -0.03991961429897167
0.12952443732252045 -0.04050978823848132
0.1378764585242665 -0.041065811958646864
0.14644660940672616 -0.041593063927716944
0.15522972763146647 -0.04209733300064806
0.16422052257649067 -0.04258442770828467
0.17341357852311146 -0.04305974830525497
0.18280335791817703 -0.043527856168908
0.19238420470968637 -0.04399207597949138
0.20215034775378343 -0.044454164023441205
0.2120959042910774 -0.04491407111802437
0.2222148834901989 -0.04536982145667648
0.23250119005645137 -0.045817519715938025
0.2429486279033891 -0.046251488788301126
0.2535509038851079 -0.04666453033506167
0.26430163158700104 -0.04704829082749601
0.27519433517269654 -0.04739370764410938
0.28622245328485874 -0.04769150377384449
0.29737934299750524 -0.04793269621894613
0.30865828381745486 -0.04810908255708317
0.320052481732506 -0.048213672331245266
0.33155507330389 -0.04824103476893637
0.3431591298005543 -0.04818754135102258
0.35485766137276875 -0.04805149033706755
0.36664362126255073 -0.047833109764905776
0.3785099100483679 -0.04753444487481664
0.3904493799215649 -0.04715914457097068
0.4024548389919357 -0.0467121687123611
0.41451905561984914 -0.046199443150518035
0.42663476277231926 -0.04562749211925463
0.43879466240039156 -0.04500307766985213
0.4509914298352198 -0.04433287340190634
0.46321771820016633 -0.04362319505543622
0.475466162836291 -0.0428798040857271
0.4877293857385438 -0.04210779276640734
0.4999999999999999 -0.0413115513728944
0.512270614261456 -0.04049481032289759
0.5245338371637088 -0.03966074348225808
0.5367822817998334 -0.03881211376416135
0.54900857016478 -0.037951439079694504
0.5612053375996082 -0.037081155865003615
0.5733652372276805 -0.03620375882996963
0.5854809443801506 -0.03532189905081053
0.5975451610080642 -0.034438427682095554
0.6095506200784349 -0.0335563788613608
0.6214900899516319 -0.03267889219434287
0.6333563787374491 -0.03180908187704787
0.645142338627231 -0.030949865395183233
0.6568408701994456 -0.030103769290287206
0.6684449266961098 -0.029272732279374367
0.6799475182674938 -0.028457926817591017
0.691341716182545 -0.027659618949755823
0.7026206570024947 -0.02687708314853472
0.713777546715141 -0.026108584102433514
0.7248056648273034 -0.025351431556866182
0.7356983684129987 -0.024602107884207757
0.746449096114892 -0.023856461664431786
0.7570513720966108 -0.023109954782367586
0.7674988099435485 -0.022357945907153665
0.7777851165098009 -0.021595990114280955
0.7879040957089227 -0.02082013308998797
0.7978496522462164 -0.020027178900530247
0.8076157952903136 -0.019214912620553203
0.8171966420818224 -0.018382262941472587
0.8265864214768883 -0.017529394837460088
0.8357794774235092 -0.016657727977741354
0.8447702723685334 -0.015769882320914388
0.8535533905932737 -0.014869557698913098
0.8621235414757333 -0.013961358739658364
0.8704755626774794 -0.013050579829629608
0.8786044232532422 -0.012142966748764566
0.8865052266813687 -0.011244472032226968
0.894173213813303 -0.010361020084535677
0.9016037657403225 -0.009498295782762779
0.9087924065757916 -0.008661567056979295
0.9157348061512727 -0.00785554810158147
0.9224267826248536 -0.007084305857316607
0.928864305000136 -0.006351208608131618
0.9350434955543556 -0.005658912307916264
0.9409606321741775 -0.005009377856596046
0.9466121505977576 -0.004403911145006699
0.9519946465617215 -0.003843217330018421
0.9571048778517655 -0.0033274614178497855
0.9619397662556433 -0.0028563286562983577
0.9664963994173694 -0.0024290802208248876
0.9707720325915102 -0.002044601934376229
0.9747640902965183 -0.001701445984658112
0.9784701678661044 -0.0013978675166922746
0.98188803289772 -0.0011318593580573316
0.985015626597272 -0.0009011888314363422
0.9878510650192642 -0.0007034405670366489
0.9903926402016152 -0.0005360684830653684
0.9926388211944706 -0.0003964587787957412
0.9945882549823906 -0.0002820040735874802
0.9962397672993549 -0.00019018696207285062
0.9975923633360985 -0.00011866949059773728
0.998645228339345 -6.538362702976906e-05
0.9993977281025862 -2.8616885534815284e-05
0.9998494093481021 -7.087004150047949e-06
1.0 0.0
