1.0 0.0
0.9998494093481021 2.2827778411888238e-05
0.9993977281025862 9.141172195630956e-05
0.998645228339345 0.0002060466429919733
0.9975923633360985 0.0003672015899654181
0.9962397672993549 0.0005754899723245107
0.9945882549823906 0.0008316343440424931
0.9926388211944706 0.0011364312304103523
0.9903926402016152 0.001490721361116952
0.9878510650192642 0.0018953697845510832
0.985015626597272 0.0023512586796560248
0.98188803289772 0.0028592934602335806
0.9784701678661044 0.0034204202769261144
0.9747640902965183 0.004035650609116506
0.9707720325915102 0.004706086653900639
0.9664963994173694 0.005432939973700239
0.9619397662556433 0.006217535587770414
0.9571048778517655 0.007061294500706951
0.9519946465617215 0.007965689533501335
0.9466121505977576 0.008932172102288909
0.9409606321741775 0.009962070995109037
0.9350434955543556 0.011056467851480966
0.928864305000136 0.012216057524651667
0.9224267826248536 0.013441004370712219
0.9157348061512727 0.014730807380654541
0.9087924065757916 0.016084187666403533
0.9016037657403225 0.017499010980532297
0.894173213813303 0.018972255700332855
0.8865052266813687 0.020500033211628216
0.8786044232532422 0.02207766320640832
0.8704755626774794 0.02369980149802457
0.8621235414757333 0.025360613065535508
0.8535533905932737 0.027053978686310452
0.8447702723685334 0.028773720179832398
0.8357794774235092 0.03051382734224921
0.8265864214768883 0.032268669331857125
0.8171966420818224 0.034033174627130555
0.8076157952903136 0.03580296659372795
0.7978496522462164 0.037574445864890164
0.7879040957089227 0.03934481571936825
0.7777851165098009 0.04111205189833347
0.7674988099435485 0.04287482327081674
0.7570513720966108 0.044632373901569024
0.746449096114892 0.046384379955587016
0.7356983684129987 0.04813079619613872
0.7248056648273034 0.04987170648616601
0.713777546715141 0.051607190771412625
0.7026206570024947 0.05333721778076655
0.691341716182545 0.05506156855560957
0.6799475182674938 0.056779791452674554
0.6684449266961098 0.0584911850336723
0.6568408701994456 0.060194801810976827
0.645142338627231 0.06188946361562036
0.6333563787374491 0.06357377868902071
0.6214900899516319 0.0652461515726494
0.6095506200784349 0.06690477936348063
0.5975451610080642 0.06854763159223455
0.5854809443801506 0.07017241536595063
0.5733652372276805 0.07177653187779168
0.5612053375996082 0.0733570342618884
0.54900857016478 0.07491059943379673
0.5367822817998334 0.07643352750136712
0.5245338371637088 0.07792178124074861
0.512270614261456 0.07937107493447426
0.4999999999999999 0.08077701675749731
0.4877293857385438 0.08213530232929168
0.475466162836291 0.0834419497074178
0.46321771820016633 0.0846935588208959
0.4509914298352198 0.08588757204089058
0.43879466240039156 0.08702250813940551
0.42663476277231926 0.08809814003370108
0.41451905561984914 0.08911558796072643
0.4024548389919357 0.0900773042683063
0.3904493799215649 0.0909869336900722
0.3785099100483679 0.09184904326862116
0.36664362126255073 0.09266872815502714
0.35485766137276875 0.09345111223127231
0.3431591298005543 0.09420077460698477
0.33155507330389 0.09492114323384677
0.320052481732506 0.09561390396712072
0.30865828381745486 0.09627847643034129
0.29737934299750524 0.0969116064073134
0.28622245328485874 0.09750711803435773
0.27519433517269654 0.09805585811455529
0.26430163158700104 0.09854585021752915
0.2535509038851079 0.09896265907337962
0.2429486279033891 0.09928994764312653
0.23250119005645137 0.09951019185084108
0.2222148834901989 0.09960550300581812
0.2120959042910774 0.09955849697587882
0.20215034775378343 0.09935314341880754
0.19238420470968637 0.09897552859877781
0.18280335791817703 0.09841447171063755
0.17341357852311146 0.09766194680814361
0.16422052257649067 0.09671327939916673
0.15522972763146647 0.09556710703979804
0.14644660940672616 0.09422511496084147
0.1378764585242665 0.09269157882040853
0.12952443732252045 0.09097276501648263
0.12139557674675777 0.08907625273663489
0.11349477331863145 0.0870102495872412
0.10582678618669683 0.08478297330572658
0.09839623425967753 0.08240216545566244
0.09120759342420814 0.07987478958655085
0.08426519384872727 0.0772069472469808
0.07757321737514639 0.07440402220706864
0.07113569499986394 0.07147103845175408
0.06495650444564427 0.06841319336911575
0.059039367825822475 0.06523650650493994
0.05338784940224234 0.06194850848447858
0.048005353438278275 0.058558885961320965
0.042895122148234655 0.05507999785329216
0.038060233744356575 0.05152718601735443
0.03350360058263052 0.04791881943565212
0.029227967408489597 0.04427603367792122
0.025235909703481607 0.04062215492645826
0.021529832133895532 0.03698182773436614
0.018111967102280024 0.0333798951765849
0.014984373402728013 0.02984010634945949
0.012148934980735715 0.026383746709887263
0.009607359798384785 0.023028299428367205
0.007361178805529334 0.019786249355294983
0.005411745017609493 0.016664134790720087
0.0037602327006450165 0.013661936327455142
0.0024076366639015356 0.010772867811937063
0.0013547716606548965 0.007983603925810774
0.0006022718974137975 0.005274944631344
0.00015059065189787502 0.002622881717018709
0.0 0.0
0.00015059065189787502 -0.0022373234787123773
0.0006022718974137975 -0.004457629118872411
0.0013547716606548965 -0.006644589432932646
0.0024076366639015356 -0.00878321342893247
0.0037602327006450165 -0.010860407534269253
0.005411745017609493 -0.012865416427846367
0.007361178805529334 -0.014790117542226781
0.009607359798384785 -0.01662915346917248
0.012148934980735715 -0.018379898026161905
0.014984373402728013 -0.02004226345404772
0.018111967102280024 -0.021618367241672185
0.021529832133895532 -0.023112086592496438
0.025235909703481607 -0.02452853586009794
0.029227967408489597 -0.02587350685492396
0.03350360058263052 -0.027152913447700256
0.038060233744356575 -0.02837228028576102
0.042895122148234655 -0.029536310859887574
0.048005353438278275 -0.030648563002611824
0.05338784940224234 -0.03171125075369007
0.059039367825822475 -0.032725181134836155
0.06495650444564427 -0.03368982356612056
0.07113569499986394 -0.03460349928879229
0.07757321737514639 -0.03546366904909574
0.08426519384872727 -0.03626729015253133
0.09120759342420814 -0.03701120936107712
0.09839623425967753 -0.037692556312372255
0.10582678618669683 -0.03830910329041915
0.11349477331863145 -0.03885956113056142
0.12139557674675777 -0.03934378742612332
0.12952443732252045 -0.03976289145046751
0.1378764585242665 -0.040119229596038315
0.14644660940672616 -0.04041629485081521
0.15522972763146647 -0.040658513050268595
0.16422052257649067 -0.04085096657560988
0.17341357852311146 -0.04099907214794068
0.18280335791817703 -0.04110824289565152
0.19238420470968637 -0.04118356566609197
0.20215034775378343 -0.04122952256751588
0.2120959042910774 -0.041249781161205985
0.2222148834901989 -0.04124707099925778
0.23250119005645137 -0.04122315593198861
0.2429486279033891 -0.04117890253687587
0.2535509038851079 -0.041114435964882665
0.26430163158700104 -0.04102936627496116
0.27519433517269654 -0.04092306167490643
0.28622245328485874 -0.040794940608809505
0.29737934299750524 -0.04064475273738464
0.30865828381745486 -0.040472819726679196
0.320052481732506 -0.040280210325610015
0.33155507330389 -0.0400688301641418
0.3431591298005543 -0.03984141451726008
0.35485766137276875 -0.03960142126133643
0.36664362126255073 -0.03935283059694593
0.3785099100483679 -0.03909986698644116
0.3904493799215649 -0.03884666635395957
0.4024548389919357 -0.038596917227676775
0.41451905561984914 -0.03835350764813995
0.42663476277231926 -0.03811821002016616
0.43879466240039156 -0.03789143359313968
0.4509914298352198 -0.03767206911176679
0.46321771820016633 -0.037457442817966216
0.475466162836291 -0.03724338803362591
0.4877293857385438 -0.03702443278446653
0.4999999999999999 -0.03679409218198402
0.512270614261456 -0.03654524540710464
0.5245338371637088 -0.036270569903781934
0.5367822817998334 -0.0359630004178834
0.54900857016478 -0.03561617823281012
0.5612053375996082 -0.03522485654983501
0.5733652372276805 -0.03478523137896835
0.5854809443801506 -0.03429517324220745
0.5975451610080642 -0.03375434292685916
0.6095506200784349 -0.033164183775853354
0.6214900899516319 -0.032527792772288636
0.6333563787374491 -0.03184968213940024
0.645142338627231 -0.03113545154519861
0.6568408701994456 -0.030391397590328016
0.6684449266961098 -0.029624091550223063
0.6799475182674938 -0.028839958027747206
0.691341716182545 -0.028044886170120138
0.7026206570024947 -0.027243901566730736
0.713777546715141 -0.026440921238970634
0.7248056648273034 -0.025638606802434627
0.7356983684129987 -0.024838322592409253
0.746449096114892 -0.024040197023583308
0.7570513720966108 -0.023243277427503522
0.7674988099435485 -0.022445761730726654
0.7777851165098009 -0.021645285132439164
0.7879040957089227 -0.020839236774671418
0.7978496522462164 -0.020025080439850514
0.8076157952903136 -0.019200654527222995
0.8171966420818224 -0.01836442973008566
0.8265864214768883 -0.017515707577164093
0.8357794774235092 -0.016654748812424614
0.8447702723685334 -0.01578282689932623
0.8535533905932737 -0.014902208167630836
0.8621235414757333 -0.014016065735614447
0.8704755626774794 -0.013128338890487062
0.8786044232532422 -0.012243552774912183
0.8865052266813687 -0.011366614837723886
0.894173213813303 -0.010502604549606562
0.9016037657403225 -0.009656571495802443
0.9087924065757916 -0.008833354400199086
0.9157348061512727 -0.008037430262990915
0.9224267826248536 -0.007272799013001012
0.928864305000136 -0.006542905297887297
0.9350434955543556 -0.00585059563739484
0.9409606321741775 -0.005198106451054889
0.9466121505977576 -0.004587076647952331
0.9519946465617215 -0.004018577624293619
0.9571048778517655 -0.0034931536306556372
0.9619397662556433 -0.003010866415913483
0.9664963994173694 -0.0025713396160416597
0.9707720325915102 -0.0021738002660166263
0.9747640902965183 -0.0018171167842727478
0.9784701678661044 -0.00149983453810749
0.98188803289772 -0.0012202114170505132
0.985015626597272 -0.0009762565615762307
0.9878510650192642 -0.0007657754443078338
0.9903926402016152 -0.000586423898210829
0.9926388211944706 -0.00043577253400494607
0.9945882549823906 -0.00031138145889662914
0.9962397672993549 -0.00021088351810953374
0.9975923633360985 -0.00013207266437987363
0.998645228339345 -7.29927413315194e-05
0.9993977281025862 -3.20211276923973e-05
0.9998494093481021 -7.941452261911383e-06
1.0 0.0
