1.0 0.0
0.9998494093481021 2.2433799110163268e-05
0.9993977281025862 8.981173166660428e-05
0.998645228339345 0.00020235730307932549
0.9975923633360985 0.0003604237511861645
0.9962397672993549 0.000564468697172767
0.9945882549823906 0.0008150252075267181
0.9926388211944706 0.0011126745779864047
0.9903926402016152 0.0014580260872758019
0.9878510650192642 0.0018517080267742322
0.985015626597272 0.002294372588846317
0.98188803289772 0.002786714901497661
0.9784701678661044 0.0033295039290647346
0.9747640902965183 0.003923620468383741
0.9707720325915102 0.0045700954154485164
0.9664963994173694 0.005270140178265218
0.9619397662556433 0.006025160805155791
0.9571048778517655 0.0068367482065506135
0.9519946465617215 0.007706638759120476
0.9466121505977576 0.00863664244095054
0.9409606321741775 0.009628539175656703
0.9350434955543556 0.010683947884353574
0.928864305000136 0.011804176423636797
0.9224267826248536 0.012990063685420206
0.9157348061512727 0.01424182725667026
0.9087924065757916 0.015558930884031416
0.9016037657403225 0.0169399853928905
0.894173213813303 0.01838269466200848
0.8865052266813687 0.019883854905659113
0.8786044232532422 0.02143941116763271
0.8704755626774794 0.023044570007571995
0.8621235414757333 0.024693962356772854
0.8535533905932737 0.026381845954762936
0.8447702723685334 0.028102333128814348
0.8357794774235092 0.029849627332644964
0.8265864214768883 0.03161825106712183
0.8171966420818224 0.03340324864690215
0.8076157952903136 0.035200349656893594
0.7978496522462164 0.03700608259732283
0.7879040957089227 0.03881783274348155
0.7777851165098009 0.040633843150466566
0.7674988099435485 0.042453162483385806
0.7570513720966108 0.044275547444884544
0.746449096114892 0.046101330585396644
0.7356983684129987 0.04793126593360405
0.7248056648273034 0.049766365060728415
0.713777546715141 0.05160773496097862
0.7026206570024947 0.053456426734670624
0.691341716182545 0.05531330088754131
0.6799475182674938 0.05717891159280092
0.6684449266961098 0.059053409019195494
0.6568408701994456 0.06093645629385159
0.645142338627231 0.0628271562306086
0.6333563787374491 0.06472398284892254
0.6214900899516319 0.06662471398271756
0.6095506200784349 0.06852636377761012
0.5975451610080642 0.07042511725209616
0.5854809443801506 0.07231627285160779
0.5733652372276805 0.07419420245437493
0.5612053375996082 0.07605234097123437
0.54900857016478 0.07788321895109447
0.5367822817998334 0.07967855102825619
0.5245338371637088 0.0814293903982048
0.512270614261456 0.08312635480468314
0.4999999999999999 0.08475992305102416
0.4877293857385438 0.08632079335755403
0.475466162836291 0.08780028673236494
0.46321771820016633 0.08919077080452427
0.4509914298352198 0.0904860732346964
0.43879466240039156 0.09168184975851898
0.42663476277231926 0.09277587085896838
0.41451905561984914 0.0937681934714571
0.4024548389919357 0.09466119013240912
0.3904493799215649 0.09545941734703496
0.3785099100483679 0.09616931705620364
0.36664362126255073 0.09679875896790686
0.35485766137276875 0.09735644596632037
0.3431591298005543 0.0978512184499479
0.33155507330389 0.0982913048904997
0.320052481732506 0.09868357388129535
0.30865828381745486 0.09903284645596734
0.29737934299750524 0.09934132588374728
0.28622245328485874 0.09960819533107768
0.27519433517269654 0.09982942207215281
0.26430163158700104 0.09999779118278494
0.2535509038851079 0.1001031731499186
0.2429486279033891 0.10013301019021095
0.23250119005645137 0.10007298709582182
0.2222148834901989 0.09990783592661125
0.2120959042910774 0.09962221149052952
0.20215034775378343 0.09920156760584534
0.19238420470968637 0.09863296344764107
0.18280335791817703 0.09790573509453553
0.17341357852311146 0.0970119793327672
0.16422052257649067 0.09594681385749577
0.15522972763146647 0.09470839871773816
0.14644660940672616 0.09329772626566465
0.1378764585242665 0.09171820885566098
0.12952443732252045 0.0899751129397838
0.12139557674675777 0.08807490306628314
0.11349477331863145 0.0860245680444251
0.10582678618669683 0.08383100319069567
0.09839623425967753 0.08150051679295632
0.09120759342420814 0.07903851612067879
0.08426519384872727 0.07644940957737528
0.07757321737514639 0.07373673865728836
0.07113569499986394 0.07090352841512441
0.06495650444564427 0.06795282062576612
0.059039367825822475 0.06488833216510215
0.05338784940224234 0.061715164630117586
0.048005353438278275 0.0584404816389643
0.042895122148234655 0.05507406878099818
0.038060233744356575 0.05162869823230251
0.03350360058263052 0.04812023520384506
0.029227967408489597 0.04456744543785459
0.025235909703481607 0.040991490003846505
0.021529832133895532 0.037415123228476524
0.018111967102280024 0.033861638975263265
0.014984373402728013 0.03035363687383539
0.012148934980735715 0.026911700903771398
0.009607359798384785 0.02355309585335738
0.007361178805529334 0.02029059116423046
0.005411745017609493 0.017131515929718358
0.0037602327006450165 0.014077133624545917
0.0024076366639015356 0.011122401675611947
0.0013547716606548965 0.00825615119116
0.0006022718974137975 0.005461688613115633
0.00015059065189787502 0.0027177866865549724
0.0 0.0
0.00015059065189787502 -0.002302767944893044
0.0006022718974137975 -0.0045864985045121045
0.0013547716606548965 -0.006832893294842417
0.0024076366639015356 -0.009025086687250841
0.0037602327006450165 -0.011148252292156508
0.005411745017609493 -0.013190086354746867
0.007361178805529334 -0.015141140967711138
0.009607359798384785 -0.016994990591627224
0.012148934980735715 -0.018748227030547803
0.014984373402728013 -0.02040028986825338
0.018111967102280024 -0.021953150547345868
0.021529832133895532 -0.02341087794184573
0.025235909703481607 -0.024779120725536816
0.029227967408489597 -0.026064546536758975
0.03350360058263052 -0.027274279562821552
0.038060233744356575 -0.028415376628819555
0.042895122148234655 -0.02949437733561417
0.048005353438278275 -0.030516956640714927
0.05338784940224234 -0.03148769910494109
0.059039367825822475 -0.03241000358217096
0.06495650444564427 -0.03328611624945992
0.07113569499986394 -0.0341172794292185
0.07757321737514639 -0.03490397447256976
0.08426519384872727 -0.035646229775746004
0.09120759342420814 -0.0363439603477746
0.09839623425967753 -0.03699730358737924
0.10582678618669683 -0.037606917172880686
0.11349477331863145 -0.038174209088053246
0.12139557674675777 -0.03870147643170568
0.12952443732252045 -0.03919193821683989
0.1378764585242665 -0.039649657126584456
0.14644660940672616 -0.0400793553311898
0.15522972763146647 -0.04048613912664429
0.16422052257649067 -0.040875155516440484
0.17341357852311146 -0.041251210219131265
0.18280335791817703 -0.04161838040991305
0.19238420470968637 -0.041979656472808956
0.20215034775378343 -0.042336645070459755
0.2120959042910774 -0.04268936109849002
0.2222148834901989 -0.043036128982430005
0.23250119005645137 -0.043373604898963386
0.2429486279033891 -0.04369692161084067
0.2535509038851079 -0.04399994753254944
0.26430163158700104 -0.04427564224238818
0.27519433517269654 -0.04451648271821297
0.28622245328485874 -0.04471492876506547
0.29737934299750524 -0.04486389290659522
0.30865828381745486 -0.04495717968817448
0.320052481732506 -0.044989861901781864
0.33155507330389 -0.04495856645895764
0.3431591298005543 -0.04486165005116678
0.35485766137276875 -0.044699253704851075
0.36664362126255073 -0.04447323509122787
0.3785099100483679 -0.04418698715766929
0.3904493799215649 -0.0438451604891796
0.4024548389919357 -0.04345331404883908
0.41451905561984914 -0.04301752399513071
0.42663476277231926 -0.04254398273826758
0.43879466240039156 -0.042038620112337846
0.4509914298352198 -0.041506775581452666
0.46321771820016633 -0.04095294507364878
0.475466162836291 -0.040380618854952574
0.4877293857385438 -0.0397922184804334
0.4999999999999999 -0.039189132044880504
0.512270614261456 -0.03857183848308046
0.5245338371637088 -0.03794010427341084
0.5367822817998334 -0.03729323020335623
0.54900857016478 -0.03663032232223019
0.5612053375996082 -0.035950560092928935
0.5733652372276805 -0.03525343609699605
0.5854809443801506 -0.03453894526058058
0.5975451610080642 -0.03380770706793067
0.6095506200784349 -0.03306101106765111
0.6214900899516319 -0.0323007835006826
0.6333563787374491 -0.031529480387130264
0.645142338627231 -0.03074991921963214
0.6568408701994456 -0.029965066922410664
0.6684449266961098 -0.029177805479773545
0.6799475182674938 -0.028390698321401762
0.691341716182545 -0.02760578007633592
0.7026206570024947 -0.026824389775527997
0.713777546715141 -0.02604706328218453
0.7248056648273034 -0.025273495101943037
0.7356983684129987 -0.02450257332204975
0.746449096114892 -0.023732484855608943
0.7570513720966108 -0.022960882025811615
0.7674988099435485 -0.022185096358741743
0.7777851165098009 -0.021402381696785287
0.7879040957089227 -0.020610166687572422
0.7978496522462164 -0.01980629646814826
0.8076157952903136 -0.018989244900092957
0.8171966420818224 -0.018158281806105143
0.8265864214768883 -0.017313583963896734
0.8357794774235092 -0.016456283683508884
0.8447702723685334 -0.015588454132631054
0.8535533905932737 -0.014713035682997984
0.8621235414757333 -0.013833711977585412
0.8704755626774794 -0.01295474779909653
0.8786044232532422 -0.012080802910126611
0.8865052266813687 -0.011216736726648312
0.894173213813303 -0.010367418012384465
0.9016037657403225 -0.009537551906199466
0.9087924065757916 -0.008731533789406637
0.9157348061512727 -0.007953336111041046
0.9224267826248536 -0.007206430698432827
0.928864305000136 -0.006493745664101324
0.9350434955543556 -0.0058176531103284876
0.9409606321741775 -0.005179981685673777
0.9466121505977576 -0.0045820468199792895
0.9519946465617215 -0.004024691202483714
0.9571048778517655 -0.00350832870851947
0.9619397662556433 -0.0030329863642522764
0.9664963994173694 -0.002598340832421027
0.9707720325915102 -0.0022037480273450934
0.9747640902965183 -0.0018482665363141369
0.9784701678661044 -0.0015306772714690068
0.98188803289772 -0.001249502988502566
0.985015626597272 -0.0010030318482159627
0.9878510650192642 -0.0007893490149564708
0.9903926402016152 -0.0006063794244520033
0.9926388211944706 -0.0004519434384316677
0.9945882549823906 -0.00032382532705920835
0.9962397672993549 -0.00021985261697603396
0.9975923633360985 -0.0001379825601438389
0.998645228339345 -7.639054745310273e-05
0.9993977281025862 -3.355439782585604e-05
0.9998494093481021 -8.328218892135858e-06
1.0 0.0
