1.0 0.0
0.9998494093481021 2.356745612678468e-05
0.9993977281025862 9.432900864216508e-05
0.998645228339345 0.00021245635785017102
0.9975923633360985 0.00037821724463524476
0.9962397672993549 0.00059195142904104
0.9945882549823906 0.0008540437261904807
0.9926388211944706 0.0011648995132780258
0.9903926402016152 0.0015249280700998628
0.9878510650192642 0.001934538173408866
0.985015626597272 0.002394148626981999
0.98188803289772 0.00290421408333093
0.9784701678661044 0.0034652638973715908
0.9747640902965183 0.004077949197633239
0.9707720325915102 0.004743091225741066
0.9664963994173694 0.0054617226011841515
0.9619397662556433 0.006235112756597951
0.9571048778517655 0.007064769485688297
0.9519946465617215 0.007952410343883387
0.9466121505977576 0.00889990039465397
0.9409606321741775 0.009909156230368886
0.9350434955543556 0.010982019946715478
0.928864305000136 0.012120110389707011
0.9224267826248536 0.013324662093456879
0.9157348061512727 0.014596364499896115
0.9087924065757916 0.015935215005998832
0.9016037657403225 0.017340398958067743
0.894173213813303 0.01881020789827637
0.8865052266813687 0.02034200431736866
0.8786044232532422 0.021932237176691752
0.8704755626774794 0.023576507945258812
0.8621235414757333 0.02526968233597271
0.8535533905932737 0.02700603881746592
0.8447702723685334 0.0287794417799787
0.8357794774235092 0.03058352530478902
0.8265864214768883 0.03241187304641028
0.8171966420818224 0.03425818083631097
0.8076157952903136 0.03611639113028835
0.7978496522462164 0.03798079205737228
0.7879040957089227 0.039846078160854934
0.7777851165098009 0.041707374440517656
0.7674988099435485 0.04356022947150039
0.7570513720966108 0.04540058668880725
0.746449096114892 0.04722474498406483
0.7356983684129987 0.04902932030782318
0.7248056648273034 0.05081121893310189
0.713777546715141 0.052567630535290566
0.7026206570024947 0.054296045585388836
0.691341716182545 0.05599429719488385
0.6799475182674938 0.05766062304782969
0.6684449266961098 0.05929373899949367
0.6568408701994456 0.06089291286432677
0.645142338627231 0.06245802530508044
0.6333563787374491 0.06398960484998513
0.6214900899516319 0.06548882597970096
0.6095506200784349 0.06695746278986164
0.5975451610080642 0.06839779558292912
0.5854809443801506 0.06981247332932469
0.5733652372276805 0.0712043405954543
0.5612053375996082 0.07257624255234112
0.54900857016478 0.07393082537860589
0.5367822817998334 0.0752703512031794
0.5245338371637088 0.0765965463395683
0.512270614261456 0.07791049883696217
0.4999999999999999 0.0792126164822715
0.4877293857385438 0.08050264977143132
0.475466162836291 0.08177977670371415
0.46321771820016633 0.08304273838507199
0.4509914298352198 0.08429000728252815
0.43879466240039156 0.08551996445637411
0.42663476277231926 0.08673105898750062
0.41451905561984914 0.08792192266556899
0.4024548389919357 0.08909141605972283
0.3904493799215649 0.09023858825782902
0.3785099100483679 0.09136254137396604
0.36664362126255073 0.09246220159802855
0.35485766137276875 0.09353601004431826
0.3431591298005543 0.09458155773419567
0.33155507330389 0.09559519846923038
0.320052481732506 0.09657167995995743
0.30865828381745486 0.09750383644297539
0.29737934299750524 0.09838238455840793
0.28622245328485874 0.09919585830720273
0.27519433517269654 0.09993070876520345
0.26430163158700104 0.10057158065960352
0.2535509038851079 0.10110176207864335
0.2429486279033891 0.10150378695632811
0.23250119005645137 0.10176015418578889
0.2222148834901989 0.10185411390789742
0.2120959042910774 0.10177046217153658
0.20215034775378343 0.10149628091966569
0.19238420470968637 0.10102156181397536
0.18280335791817703 0.10033965991308448
0.17341357852311146 0.09944753621750822
0.16422052257649067 0.09834576557082335
0.15522972763146647 0.09703830684971829
0.14644660940672616 0.09553205391401863
0.1378764585242665 0.09383620636145401
0.12952443732252045 0.091961516692067
0.12139557674675777 0.08991948320114088
0.11349477331863145 0.0877215643618838
0.10582678618669683 0.0853784897684638
0.09839623425967753 0.08289973469493811
0.09120759342420814 0.08029321050741088
0.08426519384872727 0.07756520275247919
0.07757321737514639 0.07472056453183291
0.07113569499986394 0.07176314699079135
0.06495650444564427 0.06869642385580747
0.059039367825822475 0.06552424540567436
0.05338784940224234 0.06225164126192015
0.048005353438278275 0.05888558267755167
0.042895122148234655 0.055435614682458494
0.038060233744356575 0.0519142768276513
0.03350360058263052 0.04833724785299366
0.029227967408489597 0.044723173079622536
0.025235909703481607 0.041093161700489524
0.021529832133895532 0.03746997189229714
0.018111967102280024 0.033876931989468576
0.014984373402728013 0.030336673004140936
0.012148934980735715 0.026869768941035755
0.009607359798384785 0.023493394525904657
0.007361178805529334 0.020220113721099924
0.005411745017609493 0.01705690616411391
0.0037602327006450165 0.014004522767478546
0.0024076366639015356 0.01105723738731584
0.0013547716606548965 0.008203030720584712
0.0006022718974137975 0.005424208059135585
0.00015059065189787502 0.0026984172203524197
0.0 0.0
0.00015059065189787502 -0.002311530824599848
0.0006022718974137975 -0.004604544240384529
0.0013547716606548965 -0.006861242157771767
0.0024076366639015356 -0.00906522147808624
0.0037602327006450165 -0.01120206555976089
0.005411745017609493 -0.013259816868422907
0.007361178805529334 -0.015229304558803617
0.009607359798384785 -0.017104310879839876
0.012148934980735715 -0.018881571463952307
0.014984373402728013 -0.020560615924464544
0.018111967102280024 -0.02214346589828497
0.021529832133895532 -0.023634216945342793
0.025235909703481607 -0.025038537877486836
0.029227967408489597 -0.026363125629480205
0.03350360058263052 -0.027615155400067797
0.038060233744356575 -0.028801764406255863
0.042895122148234655 -0.029929603365956573
0.048005353438278275 -0.031004483129491126
0.05338784940224234 -0.032031135284502264
0.059039367825822475 -0.033013095770470686
0.06495650444564427 -0.033952710353716796
0.07113569499986394 -0.03485125104974571
0.07757321737514639 -0.035709124012376484
0.08426519384872727 -0.03652614270838665
0.09120759342420814 -0.037301835873416074
0.09839623425967753 -0.038035758110586716
0.10582678618669683 -0.03872777213394086
0.11349477331863145 -0.039378275429662685
0.12139557674675777 -0.039988350146265415
0.12952443732252045 -0.04055982278045432
0.1378764585242665 -0.04109522900765702
0.14644660940672616 -0.04159768804269631
0.15522972763146647 -0.04207069941782888
0.16422052257649067 -0.04251788229425728
0.17341357852311146 -0.04294268275495958
0.18280335791817703 -0.04334807750440973
0.19238420470968637 -0.043736302774438525
0.20215034775378343 -0.04410863498360141
0.2120959042910774 -0.044465245029103755
0.2222148834901989 -0.04480514142741335
0.23250119005645137 -0.04512620946016874
0.2429486279033891 -0.0454253447480029
0.2535509038851079 -0.045698671049439754
0.26430163158700104 -0.0459418243401106
0.27519433517269654 -0.04615027906763951
0.28622245328485874 -0.04631968845937394
0.29737934299750524 -0.04644620925443522
0.30865828381745486 -0.046526782386263205
0.320052481732506 -0.046559344867881595
0.33155507330389 -0.04654295411023589
0.3431591298005543 -0.046477813611987
0.35485766137276875 -0.04636519771756722
0.36664362126255073 -0.04620728217212754
0.3785099100483679 -0.04600689570162619
0.3904493799215649 -0.04576721505129795
0.4024548389919357 -0.04549143117513701
0.41451905561984914 -0.04518241710190642
0.42663476277231926 -0.044842428142335994
0.43879466240039156 -0.044472862518720666
0.4509914298352198 -0.044074105404959735
0.46321771820016633 -0.043645472198558875
0.475466162836291 -0.04318525822781415
0.4877293857385438 -0.04269089277908867
0.4999999999999999 -0.04215918612608365
0.512270614261456 -0.04158664996172644
0.5245338371637088 -0.0409698649996982
0.5367822817998334 -0.04030586510786763
0.54900857016478 -0.0395925055451313
0.5612053375996082 -0.03882878385193838
0.5733652372276805 -0.03801508560618369
0.5854809443801506 -0.03715333327962137
0.5975451610080642 -0.03624702429096655
0.6095506200784349 -0.03530115336962855
0.6214900899516319 -0.03432202374283801
0.6333563787374491 -0.03331696063732163
0.645142338627231 -0.032293948388282714
0.6568408701994456 -0.03126121842795672
0.6684449266961098 -0.030226819104384836
0.6799475182674938 -0.029198199385049653
0.691341716182545 -0.028181836982730562
0.7026206570024947 -0.0271829374816725
0.713777546715141 -0.02620522502608691
0.7248056648273034 -0.025250837612720727
0.7356983684129987 -0.024320331672116943
0.746449096114892 -0.023412792149691282
0.7570513720966108 -0.02252603641631668
0.7674988099435485 -0.02165689368302468
0.7777851165098009 -0.02080153667201274
0.7879040957089227 -0.019955839444154393
0.7978496522462164 -0.01911573464686907
0.8076157952903136 -0.01827754497254218
0.8171966420818224 -0.017438267068202323
0.8265864214768883 -0.016595791117078693
0.8357794774235092 -0.01574904531347447
0.8447702723685334 -0.014898060903201438
0.8535533905932737 -0.014043959784429245
0.8621235414757333 -0.013188872326004858
0.8704755626774794 -0.012335797622552715
0.8786044232532422 -0.011488421556762681
0.8865052266813687 -0.010650909618089049
0.894173213813303 -0.009827691428863574
0.9016037657403225 -0.00902325249601026
0.9087924065757916 -0.008241946105758168
0.9157348061512727 -0.007487834866752903
0.9224267826248536 -0.006764567589624749
0.928864305000136 -0.0060752933795403625
0.9350434955543556 -0.005422611387233297
0.9409606321741775 -0.00480855191590943
0.9466121505977576 -0.004234582720238754
0.9519946465617215 -0.003701633450413304
0.9571048778517655 -0.003210131265360278
0.9619397662556433 -0.00276004153700319
0.9664963994173694 -0.0023509090815455797
0.9707720325915102 -0.0019818972200810318
0.9747640902965183 -0.0016518239052740972
0.9784701678661044 -0.0013591958832392208
0.98188803289772 -0.001102243164621372
0.985015626597272 -0.0008789567997960933
0.9878510650192642 -0.0006871330177830041
0.9903926402016152 -0.0005244262136400801
0.9926388211944706 -0.0003884121547110153
0.9945882549823906 -0.0002766612898846488
0.9962397672993549 -0.00018682040062114162
0.9975923633360985 -0.0001166992577931108
0.998645228339345 -6.435766257444092e-05
0.9993977281025862 -2.8187432278477146e-05
0.9998494093481021 -6.983662493076514e-06
1.0 0.0
