1.0 0.0
0.9998494093481021 2.2811902810893548e-05
0.9993977281025862 9.130787373485667e-05
0.998645228339345 0.00020566344557314766
0.9975923633360985 0.00036615464460488796
0.9962397672993549 0.0005731364975376638
0.9945882549823906 0.0008270190015159648
0.9926388211944706 0.0011282454361131826
0.9903926402016152 0.0014772777876612352
0.9878510650192642 0.0018745931187833182
0.985015626597272 0.0023206930480141595
0.98188803289772 0.002816126313173138
0.9784701678661044 0.003361521968896621
0.9747640902965183 0.003957628452168637
0.9707720325915102 0.00460535188246352
0.9664963994173694 0.005305785846458702
0.9619397662556433 0.0060602247695768
0.9571048778517655 0.006870153901254871
0.9519946465617215 0.007737210907579666
0.9466121505977576 0.008663116907478492
0.9409606321741775 0.009649578219264624
0.9350434955543556 0.010698163723956327
0.928864305000136 0.01181016617273988
0.9224267826248536 0.012986458542015591
0.9157348061512727 0.014227358297769348
0.9087924065757916 0.015532512899222396
0.9016037657403225 0.01690081891491843
0.894173213813303 0.018330384766821306
0.8865052266813687 0.019818543546475904
0.8786044232532422 0.021361917895747734
0.8704755626774794 0.022956534060603107
0.8621235414757333 0.02459797742316677
0.8535533905932737 0.026281577617052836
0.8447702723685334 0.028002608205146017
0.8357794774235092 0.029756484212875578
0.8265864214768883 0.031538940778187544
0.8171966420818224 0.03334617783761131
0.8076157952903136 0.035174958964724966
0.7978496522462164 0.0370226568878791
0.7879040957089227 0.03888724337312184
0.7777851165098009 0.04076722651140157
0.7674988099435485 0.042661543414505995
0.7570513720966108 0.0445694203593321
0.746449096114892 0.04649021508491803
0.7356983684129987 0.04842325695625623
0.7248056648273034 0.05036769996867201
0.713777546715141 0.0523224011860482
0.7026206570024947 0.05428583348890338
0.691341716182545 0.05625603691842916
0.6799475182674938 0.05823060801167127
0.6684449266961098 0.06020672194298691
0.6568408701994456 0.06218117859628351
0.645142338627231 0.06415046136501053
0.6333563787374491 0.06611079682049271
0.6214900899516319 0.06805820450378493
0.6095506200784349 0.0699885288548228
0.5975451610080642 0.07189744934974664
0.5854809443801506 0.07378046974406705
0.5733652372276805 0.07563289226251817
0.5612053375996082 0.07744978693463982
0.54900857016478 0.07922596938448387
0.5367822817998334 0.0809560017019497
0.5245338371637088 0.08263423020747573
0.512270614261456 0.08425487087750527
0.4999999999999999 0.08581214810979225
0.4877293857385438 0.08730048583309591
0.475466162836291 0.08871474239909967
0.46321771820016633 0.0900504730981542
0.4509914298352198 0.09130419745513348
0.43879466240039156 0.09247364360004254
0.42663476277231926 0.09355793974666259
0.41451905561984914 0.09455772369260258
0.4024548389919357 0.09547514550279414
0.3904493799215649 0.09631374602115336
0.3785099100483679 0.09707820406551346
0.36664362126255073 0.097773957251675
0.35485766137276875 0.09840671424539728
0.3431591298005543 0.09898188857143615
0.33155507330389 0.09950399459266487
0.320052481732506 0.09997605368694538
0.30865828381745486 0.10039906200882014
0.29737934299750524 0.10077156989660757
0.28622245328485874 0.10108941678450632
0.27519433517269654 0.10134565470177533
0.26430163158700104 0.10153067886703832
0.2535509038851079 0.10163256672231892
0.2429486279033891 0.10163760853046715
0.23250119005645137 0.10153099509724213
0.2222148834901989 0.10129761300970136
0.2120959042910774 0.1009228865829272
0.20215034775378343 0.10039359973118842
0.19238420470968637 0.09969863101725818
0.18280335791817703 0.09882954141215138
0.17341357852311146 0.09778096643659974
0.16422052257649067 0.09655078138165844
0.15522972763146647 0.09514002872750485
0.14644660940672616 0.09355261881778841
0.1378764585242665 0.09179483620907049
0.12952443732252045 0.08987470279582013
0.12139557674675777 0.08780126290276583
0.11349477331863145 0.0855838635228502
0.10582678618669683 0.08323150380144076
0.09839623425967753 0.08075232143533702
0.09120759342420814 0.07815327029585281
0.08426519384872727 0.07544002442328802
0.07757321737514639 0.07261712030617155
0.07113569499986394 0.06968832423640056
0.06495650444564427 0.06665718695493965
0.059039367825822475 0.06352772622401306
0.05338784940224234 0.06030516161015158
0.048005353438278275 0.0569966164203631
0.042895122148234655 0.05361170055015095
0.038060233744356575 0.05016289536440371
0.03350360058263052 0.046665677208877196
0.029227967408489597 0.04313833851251901
0.025235909703481607 0.03960149276332064
0.021529832133895532 0.03607727946899351
0.018111967102280024 0.03258831479113356
0.014984373402728013 0.02915646006436965
0.012148934980735715 0.025801501298033956
0.009607359798384785 0.022539845896287776
0.007361178805529334 0.019383346793083695
0.005411745017609493 0.016338358378415675
0.0037602327006450165 0.013405113287670438
0.0024076366639015356 0.010577485516061884
0.0013547716606548965 0.007843175369794697
0.0006022718974137975 0.005184318050577482
0.00015059065189787502 0.002578483143570772
0.0 0.0
0.00015059065189787502 -0.0023820069951775444
0.0006022718974137975 -0.004743655389338567
0.0013547716606548965 -0.00706536023453625
0.0024076366639015356 -0.009329037988065057
0.0037602327006450165 -0.011518745664161206
0.005411745017609493 -0.0136211948518567
0.007361178805529334 -0.0156261127414653
0.009607359798384785 -0.017526432847835317
0.012148934980735715 -0.01931830975747448
0.014984373402728013 -0.021000964104040815
0.018111967102280024 -0.022576375223472497
0.021529832133895532 -0.024048848738392126
0.025235909703481607 -0.025424493966327524
0.029227967408489597 -0.02671065099864708
0.03350360058263052 -0.027915309224271604
0.038060233744356575 -0.029046557872982406
0.042895122148234655 -0.030112104964877574
0.048005353438278275 -0.0311188942401411
0.05338784940224234 -0.032072840770496
0.059039367825822475 -0.03297869573886566
0.06495650444564427 -0.03384004013350672
0.07113569499986394 -0.03465939668797917
0.07757321737514639 -0.03543844012665979
0.08426519384872727 -0.03617827836746801
0.09120759342420814 -0.036879772354909544
0.09839623425967753 -0.03754386001391863
0.10582678618669683 -0.03817185056635989
0.11349477331863145 -0.03876565903645799
0.12139557674675777 -0.03932795685748782
0.12952443732252045 -0.03986222254546177
0.1378764585242665 -0.04037268573318559
0.14644660940672616 -0.04086416766531417
0.15522972763146647 -0.04134183071169469
0.16422052257649067 -0.04181085776551774
0.17341357852311146 -0.04227608885760717
0.18280335791817703 -0.04274164639967486
0.19238420470968637 -0.043210581831907055
0.20215034775378343 -0.0436845749895697
0.2120959042910774 -0.04416371335513421
0.2222148834901989 -0.04464637189066588
0.23250119005645137 -0.04512920591075038
0.2429486279033891 -0.04560726016873097
0.2535509038851079 -0.04607418778586234
0.26430163158700104 -0.04652256367061115
0.27519433517269654 -0.04694426941882801
0.28622245328485874 -0.047330921002570726
0.29737934299750524 -0.04767430732042974
0.30865828381745486 -0.047966807155727945
0.320052481732506 -0.048201754295325146
0.33155507330389 -0.04837372528792451
0.3431591298005543 -0.04847873113586707
0.35485766137276875 -0.04851430250833382
0.36664362126255073 -0.04847946710188126
0.3785099100483679 -0.04837462676222143
0.3904493799215649 -0.04820135013620177
0.4024548389919357 -0.04796210324258691
0.41451905561984914 -0.04765994487435594
0.42663476277231926 -0.04729821580489476
0.43879466240039156 -0.046880250219565066
0.4509914298352198 -0.046409134720729384
0.46321771820016633 -0.045887534970951355
0.475466162836291 -0.04531760305288017
0.4877293857385438 -0.04470097058967992
0.4999999999999999 -0.04403882432818101
0.512270614261456 -0.04333205299887711
0.5245338371637088 -0.04258144754339557
0.5367822817998334 -0.0417879318384273
0.54900857016478 -0.0409527982759673
0.5612053375996082 -0.04007792220973906
0.5733652372276805 -0.03916593135115734
0.5854809443801506 -0.038220310479202074
0.5975451610080642 -0.037245427903241604
0.6095506200784349 -0.03624647741442831
0.6214900899516319 -0.035229337304348886
0.6333563787374491 -0.034200355702890914
0.645142338627231 -0.03316607829959831
0.6568408701994456 -0.032132939860583416
0.6684449266961098 -0.031106944374058136
0.6799475182674938 -0.030093359870496265
0.691341716182545 -0.029096452890570786
0.7026206570024947 -0.028119284344339506
0.713777546715141 -0.027163583438667007
0.7248056648273034 -0.026229709924420794
0.7356983684129987 -0.025316707719268423
0.746449096114892 -0.02442244563931508
0.7570513720966108 -0.023543834161437998
0.7674988099435485 -0.02267710141283142
0.7777851165098009 -0.021818107405929373
0.7879040957089227 -0.020962673213981105
0.7978496522462164 -0.02010690144774826
0.8076157952903136 -0.019247465997674382
0.8171966420818224 -0.018381852328058838
0.8265864214768883 -0.017508534285563593
0.8357794774235092 -0.01662707894422573
0.8447702723685334 -0.015738176926399665
0.8535533905932737 -0.014843601381531459
0.8621235414757333 -0.013946103884567516
0.8704755626774794 -0.013049259533427065
0.8786044232532422 -0.012157276202064665
0.8865052266813687 -0.01127478410554106
0.894173213813303 -0.010406621566541803
0.9016037657403225 -0.009557631287017374
0.9087924065757916 -0.008732478787473292
0.9157348061512727 -0.007935501325791962
0.9224267826248536 -0.007170591936201957
0.928864305000136 -0.006441119627094934
0.9350434955543556 -0.005749883595087423
0.9409606321741775 -0.005099096830721549
0.9466121505977576 -0.004490392890150834
0.9519946465617215 -0.003924848958636745
0.9571048778517655 -0.003403018596552532
0.9619397662556433 -0.002924968598305704
0.9664963994173694 -0.002490315992732118
0.9707720325915102 -0.0020982631048581694
0.9747640902965183 -0.0017476305025270471
0.9784701678661044 -0.0014368893039730245
0.98188803289772 -0.0011641955083197249
0.985015626597272 -0.0009274295853965419
0.9878510650192642 -0.0007242444645645284
0.9903926402016152 -0.0005521243238125426
0.9926388211944706 -0.0004084553120317761
0.9945882549823906 -0.00029060771725611324
0.9962397672993549 -0.0001960273428145936
0.9975923633360985 -0.000122332207758896
0.998645228339345 -6.740936937567332e-05
0.9993977281025862 -2.9505854705898385e-05
0.9998494093481021 -7.307502674721744e-06
1.0 0.0
