1.0 0.0
0.9998494093481021 2.3451826591969157e-05
0.9993977281025862 9.38695003018736e-05
0.998645228339345 0.00021143399204924017
0.9975923633360985 0.00037642924829460586
0.9962397672993549 0.0005892191321796888
0.9945882549823906 0.0008502214827272353
0.9926388211944706 0.0011598844137224581
0.9903926402016152 0.0015186698827040163
0.9878510650192642 0.0019270486069164997
0.985015626597272 0.002385508683953944
0.98188803289772 0.002894577998928207
0.9784701678661044 0.0034548579633213125
0.9747640902965183 0.00406706367998973
0.9707720325915102 0.0047320636177039304
0.9664963994173694 0.005450910621714789
0.9619397662556433 0.0062248558174443636
0.9571048778517655 0.00705533780129594
0.9519946465617215 0.007943941440179523
0.9466121505977576 0.008892323465871519
0.9409606321741775 0.009902105573007724
0.9350434955543556 0.010974739535486321
0.928864305000136 0.012111352516001489
0.9224267826248536 0.013312583822956236
0.9157348061512727 0.014578426480346036
0.9087924065757916 0.015908087825780338
0.9016037657403225 0.01729988277802915
0.894173213813303 0.018751171411989155
0.8865052266813687 0.020258349200197243
0.8786044232532422 0.02181689402807928
0.8704755626774794 0.023421469283954444
0.8621235414757333 0.025066077455171445
0.8535533905932737 0.02674425423662435
0.8447702723685334 0.028449289645020446
0.8357794774235092 0.030174460405039984
0.8265864214768883 0.03191325716703658
0.8171966420818224 0.03365959099832083
0.8076157952903136 0.0354079659529591
0.7978496522462164 0.03715360809437664
0.7879040957089227 0.03889254571171853
0.7777851165098009 0.040621640137450774
0.7674988099435485 0.04233857101220935
0.7570513720966108 0.04404178355754432
0.746449096114892 0.04573040800329716
0.7356983684129987 0.047404162509851036
0.7248056648273034 0.04906325063593028
0.713777546715141 0.050708262725694904
0.7026206570024947 0.05234008779641891
0.691341716182545 0.053959839016264194
0.6799475182674938 0.055568792180754736
0.6684449266961098 0.05716833326743068
0.6568408701994456 0.058759908673569373
0.645142338627231 0.06034497052009678
0.6333563787374491 0.06192490967429009
0.6214900899516319 0.06350097094552755
0.6095506200784349 0.06507414807133169
0.5975451610080642 0.06664506026416558
0.5854809443801506 0.0682138166985799
0.5733652372276805 0.06977987974516062
0.5612053375996082 0.07134194133547524
0.54900857016478 0.07289782895848064
0.5367822817998334 0.07444445796687381
0.5245338371637088 0.07597784484008777
0.512270614261456 0.07749319179167627
0.4999999999999999 0.0789850468812073
0.4877293857385438 0.08044753611900168
0.475466162836291 0.0818746556848203
0.46321771820016633 0.08326060422100515
0.4509914298352198 0.08460012816886094
0.43879466240039156 0.08588884821038216
0.42663476277231926 0.08712353281797756
0.41451905561984914 0.08830228621343138
0.4024548389919357 0.08942462287787402
0.3904493799215649 0.09049140895023895
0.3785099100483679 0.09150466183937817
0.36664362126255073 0.09246721225042615
0.35485766137276875 0.09338224641821465
0.3431591298005543 0.09425275931968022
0.33155507330389 0.09508096064534619
0.320052481732506 0.09586768310237524
0.30865828381745486 0.09661184620380409
0.29737934299750524 0.09731002744378227
0.28622245328485874 0.09795618649360223
0.27519433517269654 0.09854157710013954
0.26430163158700104 0.09905486653729574
0.2535509038851079 0.0994824649922653
0.2429486279033891 0.09980904872658228
0.23250119005645137 0.10001824298251964
0.2222148834901989 0.1000934151667185
0.2120959042910774 0.10001851742888812
0.20215034775378343 0.09977891162645597
0.19238420470968637 0.09936210961671096
0.18280335791817703 0.09875836806706034
0.17341357852311146 0.09796108912873973
0.16422052257649067 0.0969669953899186
0.15522972763146647 0.09577606800127966
0.14644660940672616 0.09439125885447316
0.1378764585242665 0.09281800908383411
0.12952443732252045 0.09106362483876533
0.12139557674675777 0.08913657532481523
0.11349477331863145 0.08704578602128384
0.10582678618669683 0.08480000079971076
0.09839623425967753 0.08240728011210614
0.09120759342420814 0.07987468893321338
0.08426519384872727 0.07720820886956432
0.07757321737514639 0.07441288553827102
0.07113569499986394 0.07149319717026348
0.06495650444564427 0.06845360585290931
0.059039367825822475 0.0652992313553649
0.05338784940224234 0.06203657130785035
0.048005353438278275 0.058674182410940905
0.042895122148234655 0.05522323647089196
0.038060233744356575 0.051697872762388866
0.03350360058263052 0.04811528405799566
0.029227967408489597 0.04449549638085967
0.025235909703481607 0.04086083018224368
0.021529832133895532 0.03723506073950994
0.018111967102280024 0.03364232533361264
0.014984373402728013 0.030105851376945315
0.012148934980735715 0.02664660052849655
0.009607359798384785 0.02328193683804006
0.007361178805529334 0.020024430676920727
0.005411745017609493 0.016880904047673624
0.0037602327006450165 0.013851807131042632
0.0024076366639015356 0.010930991829527243
0.0013547716606548965 0.008105917593590714
0.0006022718974137975 0.005358290576133176
0.00015059065189787502 0.0026651021368987757
0.0 0.0
0.00015059065189787502 -0.0023393828785639717
0.0006022718974137975 -0.004658848585061665
0.0013547716606548965 -0.006939238045498089
0.0024076366639015356 -0.00916286300218438
0.0037602327006450165 -0.011314131172762455
0.005411745017609493 -0.013380047831823677
0.007361178805529334 -0.015350566457546457
0.009607359798384785 -0.017218771598174122
0.012148934980735715 -0.01898088869261449
0.014984373402728013 -0.020636127363977207
0.018111967102280024 -0.02218637582100404
0.021529832133895532 -0.023635773631817607
0.025235909703481607 -0.02499019757662214
0.029227967408489597 -0.0262567000116028
0.03350360058263052 -0.027442940867518736
0.038060233744356575 -0.02855665298127261
0.042895122148234655 -0.02960517607635868
0.048005353438278275 -0.030595087756205775
0.05338784940224234 -0.0315319509380945
0.059039367825822475 -0.03242018697045348
0.06495650444564427 -0.033263073071114924
0.07113569499986394 -0.034062852552990436
0.07757321737514639 -0.034820937379026355
0.08426519384872727 -0.0355381756154676
0.09120759342420814 -0.03621515187280046
0.09839623425967753 -0.03685248717115549
0.10582678618669683 -0.03745110594087904
0.11349477331863145 -0.03801244192649964
0.12139557674675777 -0.03853856123002003
0.12952443732252045 -0.039032189034369835
0.1378764585242665 -0.03949663596495018
0.14644660940672616 -0.03993562975979228
0.15522972763146647 -0.04035306708685026
0.16422052257649067 -0.04075270817744985
0.17341357852311146 -0.041137842759144345
0.18280335791817703 -0.04151095906224751
0.19238420470968637 -0.041873448150480046
0.20215034775378343 -0.0422253734365926
0.2120959042910774 -0.04256533018348281
0.2222148834901989 -0.0428904124852377
0.23250119005645137 -0.0431962962901994
0.2429486279033891 -0.04347743723117559
0.2535509038851079 -0.043727372205079884
0.26430163158700104 -0.04393910463978671
0.27519433517269654 -0.044105545976786356
0.28622245328485874 -0.04421998072693821
0.29737934299750524 -0.04427651997576577
0.30865828381745486 -0.044270508647223455
0.320052481732506 -0.044198855154329614
0.33155507330389 -0.0440602579977577
0.3431591298005543 -0.043855311921761043
0.35485766137276875 -0.04358648572207835
0.36664362126255073 -0.04325797392202816
0.3785099100483679 -0.0428754344375094
0.3904493799215649 -0.042445633207168605
0.4024548389919357 -0.04197602383217481
0.41451905561984914 -0.041474294969701855
0.42663476277231926 -0.04094792018120737
0.43879466240039156 -0.04040374401511981
0.4509914298352198 -0.03984763441639931
0.46321771820016633 -0.03928422545225867
0.475466162836291 -0.0387167663779837
0.4877293857385438 -0.038147083946941975
0.4999999999999999 -0.037575655392284364
0.512270614261456 -0.037001780491318276
0.5245338371637088 -0.03642383333074702
0.5367822817998334 -0.035839568465914046
0.54900857016478 -0.03524645257900579
0.5612053375996082 -0.034641991745312004
0.5733652372276805 -0.03402402603577226
0.5854809443801506 -0.03339096721000317
0.5975451610080642 -0.03274196127064256
0.6095506200784349 -0.032076965074132546
0.6214900899516319 -0.03139673433066627
0.6333563787374491 -0.030702728435915885
0.645142338627231 -0.029996944939327867
0.6568408701994456 -0.029281702433611737
0.6684449266961098 -0.028559394753719183
0.6799475182674938 -0.02783224128931957
0.691341716182545 -0.0271020578364893
0.7026206570024947 -0.026370069846045726
0.713777546715141 -0.025636785466559467
0.7248056648273034 -0.02490193989062274
0.7356983684129987 -0.024164515769759306
0.746449096114892 -0.023422837501759858
0.7570513720966108 -0.022674730648301875
0.7674988099435485 -0.021917732184972578
0.7777851165098009 -0.021149333184097993
0.7879040957089227 -0.020367233197131792
0.7978496522462164 -0.019569585178183732
0.8076157952903136 -0.018755211233636725
0.8171966420818224 -0.017923772585011846
0.8265864214768883 -0.01707588154007743
0.8357794774235092 -0.01621314852294719
0.8447702723685334 -0.015338162802815605
0.8535533905932737 -0.01445441096244538
0.8621235414757333 -0.013566141884763905
0.8704755626774794 -0.012678190719448302
0.8786044232532422 -0.011795776652106413
0.8865052266813687 -0.010924290207916422
0.894173213813303 -0.01006908529640236
0.9016037657403225 -0.009235289397799641
0.9087924065757916 -0.008427642471524683
0.9157348061512727 -0.0076503716820000255
0.9224267826248536 -0.0069071052765548036
0.928864305000136 -0.006200825304195556
0.9350434955543556 -0.005533855682732519
0.9409606321741775 -0.004907879681444956
0.9466121505977576 -0.004323979365623338
0.9519946465617215 -0.003782689015512246
0.9571048778517655 -0.00328405494159413
0.9619397662556433 -0.0028276953270294633
0.9664963994173694 -0.0024128555143074
0.9707720325915102 -0.002038456245502293
0.9747640902965183 -0.0017031344767366498
0.9784701678661044 -0.001405278247809871
0.98188803289772 -0.0011430584753084
0.985015626597272 -0.0009144613007290576
0.9878510650192642 -0.0007173246984911017
0.9903926402016152 -0.0005493824559503868
0.9926388211944706 -0.0004083174854974547
0.9945882549823906 -0.0002918248915695721
0.9962397672993549 -0.00019768351094177168
0.9975923633360985 -0.0001238330071659491
0.998645228339345 -6.845225086290609e-05
0.9993977281025862 -3.0033838442565327e-05
0.9998494093481021 -7.4493132053963e-06
1.0 0.0
