1.0 0.0
0.9998494093481021 2.3454070272192846e-05
0.9993977281025862 9.388574618246139e-05
0.998645228339345 0.000211497559494284
0.9975923633360985 0.00037660858709806
0.9962397672993549 0.00058963031377737
0.9945882549823906 0.0008510394231273104
0.9926388211944706 0.001161352847068365
0.9903926402016152 0.0015211103306144794
0.9878510650192642 0.0019308688077369243
0.985015626597272 0.002391211134432906
0.98188803289772 0.002902769399223577
0.9784701678661044 0.0034662604314499674
0.9747640902965183 0.004082528608255768
0.9707720325915102 0.0047525889836669225
0.9664963994173694 0.00547766244964349
0.9619397662556433 0.006259194328404009
0.9571048778517655 0.0070988486097396395
0.9519946465617215 0.007998471971095236
0.9466121505977576 0.008960024595195171
0.9409606321741775 0.009985478345351547
0.9350434955543556 0.011076686689404048
0.928864305000136 0.01223523444092515
0.9224267826248536 0.01346227846733655
0.9157348061512727 0.014758392603485621
0.9087924065757916 0.016123430807641743
0.9016037657403225 0.017556421942441343
0.894173213813303 0.019055507453757402
0.8865052266813687 0.020617929819463
0.8786044232532422 0.022240075263804615
0.8704755626774794 0.02391756931863521
0.8621235414757333 0.025645418871429883
0.8535533905932737 0.027418189900948613
0.8447702723685334 0.029230206651741832
0.8357794774235092 0.031075755926999394
0.8265864214768883 0.03294927972931227
0.8171966420818224 0.03484554071911764
0.8076157952903136 0.036759747772936474
0.7978496522462164 0.03868763301394421
0.7879040957089227 0.04062547661671055
0.7777851165098009 0.04257008091988421
0.7674988099435485 0.044518700342147076
0.7570513720966108 0.04646893774363383
0.746449096114892 0.04841862075471035
0.7356983684129987 0.05036567289936399
0.7248056648273034 0.05230799394677022
0.713777546715141 0.05424336190601989
0.7026206570024947 0.05616936570162055
0.691341716182545 0.05808337325954019
0.6799475182674938 0.05998253503616064
0.6684449266961098 0.06186381852508818
0.6568408701994456 0.06372406554640116
0.645142338627231 0.06556006163423861
0.6333563787374491 0.06736860591357223
0.6214900899516319 0.06914657062135852
0.6095506200784349 0.07089094179017132
0.5975451610080642 0.07259883627152977
0.5854809443801506 0.07426749474898582
0.5733652372276805 0.07589425506944672
0.5612053375996082 0.07747651444329129
0.54900857016478 0.07901169219537316
0.5367822817998334 0.0804972062650114
0.5245338371637088 0.08193047620974149
0.512270614261456 0.08330896295557827
0.4999999999999999 0.08463025110853571
0.4877293857385438 0.08589217371022122
0.475466162836291 0.0870929725219754
0.46321771820016633 0.08823148005735748
0.4509914298352198 0.08930730352879022
0.43879466240039156 0.09032098648490305
0.42663476277231926 0.09127412191855937
0.41451905561984914 0.09216939152901375
0.4024548389919357 0.09301050983671418
0.3904493799215649 0.09380205884619469
0.3785099100483679 0.09454920845046007
0.36664362126255073 0.09525732896663654
0.35485766137276875 0.09593151403007742
0.3431591298005543 0.0965760433398028
0.33155507330389 0.09719382419626675
0.320052481732506 0.0977858572571621
0.30865828381745486 0.09835077454237703
0.29737934299750524 0.09888449587166256
0.28622245328485874 0.09938004346856497
0.27519433517269654 0.09982754372746092
0.26430163158700104 0.10021443089203097
0.2535509038851079 0.10052585081247253
0.2429486279033891 0.10074524551887545
0.23250119005645137 0.1008550827208048
0.2222148834901989 0.10083768017670329
0.2120959042910774 0.10067606466785424
0.20215034775378343 0.10035480023536045
0.19238420470968637 0.09986072111450271
0.18280335791817703 0.09918351160021904
0.17341357852311146 0.09831608748249707
0.16422052257649067 0.09725475071185631
0.15522972763146647 0.09599910910814695
0.14644660940672616 0.09455177436007729
0.1378764585242665 0.09291787223284703
0.12952443732252045 0.09110441676394382
0.12139557674675777 0.08911961344552867
0.11349477331863145 0.08697216352503621
0.10582678618669683 0.08467064171585785
0.09839623425967753 0.0822230125692267
0.09120759342420814 0.07963633699272094
0.08426519384872727 0.07691670106584865
0.07757321737514639 0.07406937614156274
0.07113569499986394 0.07109919441003079
0.06495650444564427 0.06801110004537499
0.059039367825822475 0.06481081516743152
0.05338784940224234 0.061505544304770475
0.048005353438278275 0.05810463256418328
0.042895122148234655 0.05462009238245195
0.038060233744356575 0.0510669218866866
0.03350360058263052 0.04746315403681953
0.029227967408489597 0.04382959859880059
0.025235909703481607 0.04018926664638063
0.021529832133895532 0.036566497246370205
0.018111967102280024 0.032985835490605006
0.014984373402728013 0.029470737308125477
0.012148934980735715 0.02604219696539871
0.009607359798384785 0.02271740576190933
0.007361178805529334 0.01950855375924044
0.005411745017609493 0.016421879879178525
0.0037602327006450165 0.013457059702356057
0.0024076366639015356 0.010606996005624331
0.0013547716606548965 0.007858046485880994
0.0006022718974137975 0.005190688827874297
0.00015059065189787502 0.002580588252500066
0.0 0.0
0.00015059065189787502 -0.002341131698929041
0.0006022718974137975 -0.004663497439167618
0.0013547716606548965 -0.0069490568830000675
0.0024076366639015356 -0.009181175580352875
0.0037602327006450165 -0.011345217789318816
0.005411745017609493 -0.013429016038912483
0.007361178805529334 -0.015423190449398412
0.009607359798384785 -0.017321301537665774
0.012148934980735715 -0.019119832030329582
0.014984373402728013 -0.020818005203653383
0.018111967102280024 -0.02241745857232733
0.021529832133895532 -0.023921801519055833
0.025235909703481607 -0.025336092973273685
0.029227967408489597 -0.026666279963556572
0.03350360058263052 -0.02791863945348404
0.038060233744356575 -0.029099264234847502
0.042895122148234655 -0.030213628952810014
0.048005353438278275 -0.03126626496786425
0.05338784940224234 -0.03226056331679082
0.059039367825822475 -0.03319871427488522
0.06495650444564427 -0.03408178079893305
0.07113569499986394 -0.034909892331002314
0.07757321737514639 -0.0356825359152995
0.08426519384872727 -0.036398914067310176
0.09120759342420814 -0.037058333915512214
0.09839623425967753 -0.037660590180487626
0.10582678618669683 -0.03820630569434594
0.11349477331863145 -0.03869719727555646
0.12139557674675777 -0.03913624150145211
0.12952443732252045 -0.039527723693326244
0.1378764585242665 -0.039877163513862925
0.14644660940672616 -0.04019112113643857
0.15522972763146647 -0.04047689810826616
0.16422052257649067 -0.0407421559586746
0.17341357852311146 -0.040994482569735036
0.18280335791817703 -0.04124094076440634
0.19238420470968637 -0.04148763512512418
0.20215034775378343 -0.04173933162225411
0.2120959042910774 -0.04199916034592813
0.2222148834901989 -0.042268424872951744
0.23250119005645137 -0.04254653314436457
0.2429486279033891 -0.04283105491600681
0.2535509038851079 -0.04311790070369254
0.26430163158700104 -0.04340160752765855
0.27519433517269654 -0.04367570846833279
0.28622245328485874 -0.043933156758719984
0.29737934299750524 -0.044166771362848606
0.30865828381745486 -0.044369670010916004
0.320052481732506 -0.04453565752417242
0.33155507330389 -0.044659541766282895
0.3431591298005543 -0.04473735627816252
0.35485766137276875 -0.044766476979291016
0.36664362126255073 -0.04474562950832282
0.3785099100483679 -0.04467479302239653
0.3904493799215649 -0.04455501477724576
0.4024548389919357 -0.044388156845075286
0.41451905561984914 -0.044176601309987774
0.42663476277231926 -0.043922942817181926
0.43879466240039156 -0.04362969727044744
0.4509914298352198 -0.043299052836051136
0.46321771820016633 -0.04293268450982994
0.475466162836291 -0.0425316468255958
0.4877293857385438 -0.042096351465329716
0.4999999999999999 -0.041626628305069434
0.512270614261456 -0.04112186054910759
0.5245338371637088 -0.04058117777892723
0.5367822817998334 -0.04000368557383734
0.54900857016478 -0.039388707287876266
0.5612053375996082 -0.03873601283358347
0.5733652372276805 -0.03804601095116398
0.5854809443801506 -0.03731988523824876
0.5975451610080642 -0.03655965979239348
0.6095506200784349 -0.035768187130690535
0.6214900899516319 -0.03494905844972684
0.6333563787374491 -0.03410644358370679
0.645142338627231 -0.033244874540184176
0.6568408701994456 -0.032368991656264515
0.6684449266961098 -0.031483274774002847
0.6799475182674938 -0.030591783107451007
0.691341716182545 -0.02969792658744928
0.7026206570024947 -0.028804288545616168
0.713777546715141 -0.027912514942043873
0.7248056648273034 -0.02702327940966037
0.7356983684129987 -0.02613632674554019
0.746449096114892 -0.025250590740097053
0.7570513720966108 -0.0243643760062003
0.7674988099435485 -0.02347558829548493
0.7777851165098009 -0.02258199409989882
0.7879040957089227 -0.02168148841518401
0.7978496522462164 -0.020772349501017657
0.8076157952903136 -0.019853461245647047
0.8171966420818224 -0.018924487102869578
0.8265864214768883 -0.017985984151182827
0.8357794774235092 -0.017039451166481888
0.8447702723685334 -0.01608731018826357
0.8535533905932737 -0.015132826382758504
0.8621235414757333 -0.014179975601570652
0.8704755626774794 -0.013233272529185661
0.8786044232532422 -0.012297574457724236
0.8865052266813687 -0.011377876414219255
0.894173213813303 -0.010479112630926896
0.9016037657403225 -0.009605977363221456
0.9087924065757916 -0.008762775103374195
0.9157348061512727 -0.007953306669626523
0.9224267826248536 -0.007180793862947353
0.928864305000136 -0.00644784176816663
0.9350434955543556 -0.00575643467679817
0.9409606321741775 -0.005107959293222599
0.9466121505977576 -0.004503247520402922
0.9519946465617215 -0.0039426307595165294
0.9571048778517655 -0.0034259982412258513
0.9619397662556433 -0.002952853276662584
0.9664963994173694 -0.0025223632386976716
0.9707720325915102 -0.002133401277208315
0.9747640902965183 -0.0017845799416159617
0.9784701678661044 -0.0014742787569783538
0.98188803289772 -0.0012006691548059874
0.985015626597272 -0.0009617408496770645
0.9878510650192642 -0.0007553337194203156
0.9903926402016152 -0.000579178523927212
0.9926388211944706 -0.0004309485040640018
0.9945882549823906 -0.00030832222405969683
0.9962397672993549 -0.00020905618810574954
0.9975923633360985 -0.00013106401949024277
0.998645228339345 -7.249756814988625e-05
0.9993977281025862 -3.1824397276052596e-05
0.9998494093481021 -7.895814264587809e-06
1.0 0.0
