1.0 0.0
0.9998494093481021 2.290653841084549e-05
0.9993977281025862 9.170867451968247e-05
0.998645228339345 0.00020664796533656078
0.9975923633360985 0.00036810804453363375
0.9962397672993549 0.0005765897183164757
0.9945882549823906 0.0008326826107549261
0.9926388211944706 0.0011370386300115123
0.9903926402016152 0.001490352452328932
0.9878510650192642 0.0018933532672814701
0.985015626597272 0.002346810292147509
0.98188803289772 0.002851552255319333
0.9784701678661044 0.003408498467173625
0.9747640902965183 0.004018696592634408
0.9707720325915102 0.004683360171527103
0.9664963994173694 0.005403897621108243
0.9619397662556433 0.006181924139097914
0.9571048778517655 0.007019248729501251
0.9519946465617215 0.007917830486565604
0.9466121505977576 0.008879701143888197
0.9409606321741775 0.009906854448704937
0.9350434955543556 0.011001106780331341
0.928864305000136 0.012163937164510578
0.9224267826248536 0.013396318002791337
0.9157348061512727 0.014698550043484585
0.9087924065757916 0.016070116066451184
0.9016037657403225 0.01750956726731757
0.894173213813303 0.01901445439217544
0.8865052266813687 0.020581312437328216
0.8786044232532422 0.02220570348527078
0.8704755626774794 0.023882317411955657
0.8621235414757333 0.025605125260271738
0.8535533905932737 0.027367575539794325
0.8447702723685334 0.029162820055690576
0.8357794774235092 0.03098395347159847
0.8265864214768883 0.03282424991840843
0.8171966420818224 0.03467738065455328
0.8076157952903136 0.036537598969874296
0.7978496522462164 0.03839988194523458
0.7879040957089227 0.040260022938599184
0.7777851165098009 0.042114673279702086
0.7674988099435485 0.04396133610043136
0.7570513720966108 0.04579831901530471
0.746449096114892 0.04762465509095527
0.7356983684129987 0.049440002936070454
0.7248056648273034 0.051244536703041105
0.713777546715141 0.05303883540077495
0.7026206570024947 0.05482377842845899
0.691341716182545 0.05660045104836326
0.6799475182674938 0.05837006011110831
0.6684449266961098 0.06013385724972864
0.6568408701994456 0.06189306445415833
0.645142338627231 0.06364879580964766
0.6333563787374491 0.06540196946049731
0.6214900899516319 0.06715320558221324
0.6095506200784349 0.0689027091431361
0.5975451610080642 0.07065014014914234
0.5854809443801506 0.07239447837297247
0.5733652372276805 0.07413389365462222
0.5612053375996082 0.075865636077108
0.54900857016478 0.07758596208474303
0.5367822817998334 0.07929011246602105
0.5245338371637088 0.0809723558204329
0.512270614261456 0.08262610666842268
0.4999999999999999 0.08424412101717088
0.4877293857385438 0.08581876449261833
0.475466162836291 0.08734233983820847
0.46321771820016633 0.08880745255798918
0.4509914298352198 0.09020738669484026
0.43879466240039156 0.09153645808146865
0.42663476277231926 0.09279031062282421
0.41451905561984914 0.09396612275105855
0.4024548389919357 0.09506269629877902
0.3904493799215649 0.09608040845530136
0.3785099100483679 0.09702101862353177
0.36664362126255073 0.0978873349658348
0.35485766137276875 0.0986827590391547
0.3431591298005543 0.09941073984386048
0.33155507330389 0.10007417949685485
0.320052481732506 0.10067484035608695
0.30865828381745486 0.10121280679430011
0.29737934299750524 0.10168605333936742
0.28622245328485874 0.10209016441637354
0.27519433517269654 0.10241823978713743
0.26430163158700104 0.10266100481644305
0.2535509038851079 0.10280712715705344
0.2429486279033891 0.1028437229130708
0.23250119005645137 0.10275701756356476
0.2222148834901989 0.10253311166186288
0.2120959042910774 0.10215879015601076
0.20215034775378343 0.10162230835079233
0.19238420470968637 0.10091408782283047
0.18280335791817703 0.10002726220601114
0.17341357852311146 0.09895802526785993
0.16422052257649067 0.09770575108469347
0.15522972763146647 0.09627287686267369
0.14644660940672616 0.09466456112798292
0.1378764585242665 0.09288815150030923
0.12952443732252045 0.09095251494524105
0.12139557674675777 0.08886729735683681
0.11349477331863145 0.08664218704050111
0.10582678618669683 0.08428625720503458
0.09839623425967753 0.0818074556667731
0.09120759342420814 0.07921229607916813
0.08426519384872727 0.07650578529097028
0.07757321737514639 0.07369159767620892
0.07113569499986394 0.0707724816913996
0.06495650444564427 0.06775085896746454
0.059039367825822475 0.06462955441365796
0.05338784940224234 0.06141257934436976
0.048005353438278275 0.058105880325413875
0.042895122148234655 0.05471796541863733
0.038060233744356575 0.05126032715484539
0.03350360058263052 0.0477475974300638
0.029227967408489597 0.04419739234018851
0.025235909703481607 0.04062983278370097
0.021529832133895532 0.037066756981719226
0.018111967102280024 0.03353067109723028
0.014984373402728013 0.030043511046983475
0.012148934980735715 0.026625309783443667
0.009607359798384785 0.023292877652811843
0.007361178805529334 0.020058607470164722
0.005411745017609493 0.016929510092984056
0.0037602327006450165 0.013906570825313828
0.0024076366639015356 0.01098449314365357
0.0013547716606548965 0.008151865990957267
0.0006022718974137975 0.005391756840556537
0.00015059065189787502 0.0026826978705606474
0.0 0.0
0.00015059065189787502 -0.0022645288267709967
0.0006022718974137975 -0.004510556906222838
0.0013547716606548965 -0.006720316018378998
0.0024076366639015356 -0.008877457738950465
0.0037602327006450165 -0.010967653404500824
0.005411745017609493 -0.01297907091930079
0.007361178805529334 -0.014902701249142664
0.009607359798384785 -0.016732518009166312
0.012148934980735715 -0.01846546518833475
0.014984373402728013 -0.02010127989731442
0.018111967102280024 -0.02164216820213257
0.021529832133895532 -0.02309236179111197
0.025235909703481607 -0.02445759071286464
0.029227967408489597 -0.025744512185479983
0.03350360058263052 -0.02696013719001561
0.038060233744356575 -0.028111295139298678
0.042895122148234655 -0.029204172511686145
0.048005353438278275 -0.03024395434316356
0.05338784940224234 -0.03123458846198422
0.059039367825822475 -0.03217868206123404
0.06495650444564427 -0.03307752946243727
0.07113569499986394 -0.03393125958098371
0.07757321737514639 -0.034739082474411764
0.08426519384872727 -0.0354996071446168
0.09120759342420814 -0.03621119802030871
0.09839623425967753 -0.036872335606900786
0.10582678618669683 -0.03748194776608066
0.11349477331863145 -0.03803968184559124
0.12139557674675777 -0.038546094062353015
0.12952443732252045 -0.039002740592746415
0.1378764585242665 -0.03941216403590782
0.14644660940672616 -0.03977777849144805
0.15522972763146647 -0.040103665610272246
0.16422052257649067 -0.04039430185958567
0.17341357852311146 -0.04065424322486693
0.18280335791817703 -0.04088779715372006
0.19238420470968637 -0.04109871243938644
0.20215034775378343 -0.04128991588918469
0.2120959042910774 -0.041463320207161425
0.2222148834901989 -0.04161972094475138
0.23250119005645137 -0.041758792229092984
0.2429486279033891 -0.041879181992140684
0.2535509038851079 -0.04197869839328081
0.26430163158700104 -0.042054570854648525
0.27519433517269654 -0.04210376234488103
0.28622245328485874 -0.04212330485465947
0.29737934299750524 -0.042110627822132915
0.30865828381745486 -0.042063849782434
0.320052481732506 -0.041982006688179085
0.33155507330389 -0.04186519589699263
0.3431591298005543 -0.04171462225694021
0.35485766137276875 -0.04153254138320874
0.36664362126255073 -0.04132210434228677
0.3785099100483679 -0.04108711673513452
0.3904493799215649 -0.04083173282100855
0.4024548389919357 -0.04056011117120991
0.41451905561984914 -0.04027606186959918
0.42663476277231926 -0.03998271617278494
0.43879466240039156 -0.03968224772940912
0.4509914298352198 -0.0393756700968891
0.46321771820016633 -0.03906272877238192
0.475466162836291 -0.0387418978496478
0.4877293857385438 -0.0384104824399444
0.4999999999999999 -0.03806481894186415
0.512270614261456 -0.03770055690410311
0.5245338371637088 -0.037312999321099063
0.5367822817998334 -0.03689747332739203
0.54900857016478 -0.03644970082215695
0.5612053375996082 -0.035966138751928535
0.5733652372276805 -0.035444261564880765
0.5854809443801506 -0.03488276345449822
0.5975451610080642 -0.034281664963529926
0.6095506200784349 -0.03364231669361872
0.6214900899516319 -0.0329673015362353
0.6333563787374491 -0.03226024524832274
0.645142338627231 -0.031525552618903524
0.6568408701994456 -0.030768092287964947
0.6684449266961098 -0.029992857016884807
0.6799475182674938 -0.029204627593694833
0.691341716182545 -0.028407667523196886
0.7026206570024947 -0.027605472352345242
0.713777546715141 -0.026800592262268663
0.7248056648273034 -0.02599453992660767
0.7356983684129987 -0.025187788208372437
0.746449096114892 -0.024379854712670516
0.7570513720966108 -0.0235694631884046
0.7674988099435485 -0.022754765866807143
0.7777851165098009 -0.02193360650614253
0.7879040957089227 -0.02110380148859646
0.7978496522462164 -0.02026341591419206
0.8076157952903136 -0.01941101319796154
0.8171966420818224 -0.018545859967295512
0.8265864214768883 -0.0176680726979808
0.8357794774235092 -0.016778698037619662
0.8447702723685334 -0.015879724607121063
0.8535533905932737 -0.014974029706292758
0.8621235414757333 -0.014065269288743572
0.8704755626774794 -0.01315772341777701
0.8786044232532422 -0.012256111898140003
0.8865052266813687 -0.01136539577313681
0.894173213813303 -0.010490579907071106
0.9016037657403225 -0.009636530102486269
0.9087924065757916 -0.008807815408426636
0.9157348061512727 -0.008008582818734662
0.9224267826248536 -0.007242467836864282
0.928864305000136 -0.006512540791400258
0.9350434955543556 -0.0058212856765566265
0.9409606321741775 -0.0051706059390706095
0.9466121505977576 -0.004561850210214481
0.9519946465617215 -0.003995850548317536
0.9571048778517655 -0.0034729662589680628
0.9619397662556433 -0.002993127641840873
0.9664963994173694 -0.0025558758418607066
0.9707720325915102 -0.002160397077712519
0.9747640902965183 -0.0018055515889806482
0.9784701678661044 -0.0014898994121505225
0.98188803289772 -0.0012117263448768424
0.985015626597272 -0.0009690740422588696
0.9878510650192642 -0.0007597780527987193
0.9903926402016152 -0.0005815167825497908
0.9926388211944706 -0.0004318729963668006
0.9945882549823906 -0.00030840771604251203
0.9962397672993549 -0.0002087444908855843
0.9975923633360985 -0.00013066024569751463
0.998645228339345 -7.21774868966788e-05
0.9993977281025862 -3.165175858355736e-05
0.9998494093481021 -7.84800935416369e-06
1.0 0.0
