1.0 0.0
0.9998494093481021 2.309151844501737e-05
0.9993977281025862 9.243833609739595e-05
0.998645228339345 0.00020825167407863317
0.9975923633360985 0.000370866016576669
0.9962397672993549 0.0005807161340469606
0.9945882549823906 0.0008383110734359055
0.9926388211944706 0.0011442100849307902
0.9903926402016152 0.0014990053620321533
0.9878510650192642 0.0019033155424456234
0.985015626597272 0.0023577922482134217
0.98188803289772 0.002863139740669073
0.9784701678661044 0.003420145319804456
0.9747640902965183 0.004029715747536513
0.9707720325915102 0.004692913064269687
0.9664963994173694 0.005410982002062824
0.9619397662556433 0.006185360998089769
0.9571048778517655 0.0070176696875521374
0.9519946465617215 0.00790966768159808
0.9466121505977576 0.00886318225323332
0.9409606321741775 0.009880005981022521
0.9350434955543556 0.010961769062577995
0.928864305000136 0.012109794483020105
0.9224267826248536 0.013324947082395162
0.9157348061512727 0.014607489435465224
0.9087924065757916 0.01595695805969806
0.9016037657403225 0.017372072659287856
0.894173213813303 0.018850688907554616
0.8865052266813687 0.020389801840581163
0.8786044232532422 0.021985602600910672
0.8704755626774794 0.023633586464735696
0.8621235414757333 0.0253287053098175
0.8535533905932737 0.027065553446624237
0.8447702723685334 0.028838572507500965
0.8357794774235092 0.030642259232603462
0.8265864214768883 0.03247135972635043
0.8171966420818224 0.034321035130638285
0.8076157952903136 0.03618698653566749
0.7978496522462164 0.0380655310212286
0.7879040957089227 0.03995362554892512
0.7777851165098009 0.04184884047919555
0.7674988099435485 0.04374928920822466
0.7570513720966108 0.04565352428755658
0.746449096114892 0.047560412979912405
0.7356983684129987 0.04946900624374991
0.7248056648273034 0.051378414534921084
0.713777546715141 0.05328770167112746
0.7026206570024947 0.05519580461471693
0.691341716182545 0.05710148283640936
0.6799475182674938 0.059003296473425636
0.6684449266961098 0.06089960837350961
0.6568408701994456 0.06278860187002065
0.645142338627231 0.0646683042072565
0.6333563787374491 0.06653660521171842
0.6214900899516319 0.06839126216349757
0.6095506200784349 0.07022988472177275
0.5975451610080642 0.07204989784833568
0.5854809443801506 0.07384848542670132
0.5733652372276805 0.07562252204859489
0.5612053375996082 0.07736850454992297
0.54900857016478 0.07908249768277295
0.5367822817998334 0.08076010929206316
0.5245338371637088 0.08239650920623424
0.512270614261456 0.08398650268140465
0.4999999999999999 0.08552466386294717
0.4877293857385438 0.08700552782097351
0.475466162836291 0.08842383198014757
0.46321771820016633 0.08977479006505651
0.4509914298352198 0.09105437495687296
0.43879466240039156 0.09225958200877289
0.42663476277231926 0.09338864215972771
0.41451905561984914 0.09444115514406795
0.4024548389919357 0.09541811742822898
0.3904493799215649 0.09632182706653827
0.3785099100483679 0.09715565793619735
0.36664362126255073 0.09792370793242793
0.35485766137276875 0.09863033855701986
0.3431591298005543 0.0992796356346104
0.33155507330389 0.09987483132442086
0.320052481732506 0.1004177349489627
0.30865828381745486 0.10090822346298303
0.29737934299750524 0.10134384101933808
0.28622245328485874 0.10171955087832506
0.27519433517269654 0.10202767216192499
0.26430163158700104 0.1022580194611235
0.2535509038851079 0.10239824627161383
0.2429486279033891 0.10243437518869374
0.23250119005645137 0.10235148044272986
0.2222148834901989 0.10213447342233159
0.2120959042910774 0.10176893087302026
0.20215034775378343 0.10124189970896232
0.19238420470968637 0.10054261260469363
0.18280335791817703 0.09966305495247853
0.17341357852311146 0.09859833598466933
0.16422052257649067 0.09734683388675906
0.15522972763146647 0.0959101050714405
0.14644660940672616 0.09429256957149551
0.1378764585242665 0.0925010056567867
0.12952443732252045 0.09054390519816381
0.12139557674675777 0.08843075509988231
0.11349477331863145 0.08617131780890769
0.10582678618669683 0.08377498454781021
0.09839623425967753 0.08125026823879791
0.09120759342420814 0.07860448953555423
0.08426519384872727 0.07584369009519568
0.07757321737514639 0.07297278394376383
0.07113569499986394 0.06999593270084041
0.06495650444564427 0.0669171059620325
0.059039367825822475 0.0637407667342602
0.05338784940224234 0.06047260569287262
0.048005353438278275 0.05712023894606299
0.042895122148234655 0.05369378308030831
0.038060233744356575 0.05020622888822026
0.03350360058263052 0.04667355089756033
0.029227967408489597 0.043114512383232544
0.025235909703481607 0.03955015301523847
0.021529832133895532 0.03600297621389535
0.018111967102280024 0.03249588288901617
0.014984373402728013 0.029050924730681497
0.012148934980735715 0.025687971019013666
0.009607359798384785 0.022423395926708847
0.007361178805529334 0.019268897081291078
0.005411745017609493 0.016230550143314215
0.0037602327006450165 0.01330818864939942
0.0024076366639015356 0.01049517455551062
0.0013547716606548965 0.007778594770540459
0.0006022718974137975 0.005139885076847394
0.00015059065189787502 0.0025558481521724664
0.0 0.0
0.00015059065189787502 -0.0023582895341537897
0.0006022718974137975 -0.004698516226211973
0.0013547716606548965 -0.007003310383354741
0.0024076366639015356 -0.009256645940270512
0.0037602327006450165 -0.011444408631774781
0.005411745017609493 -0.013554848070797314
0.007361178805529334 -0.015578888159784535
0.009607359798384785 -0.01751028023761638
0.012148934980735715 -0.019345594350370608
0.014984373402728013 -0.021084055214154396
0.018111967102280024 -0.022727239981834603
0.021529832133895532 -0.024278664054731
0.025235909703481607 -0.025743288228236537
0.029227967408489597 -0.02712698492208163
0.03350360058263052 -0.028436002817356212
0.038060233744356575 -0.02967646782302756
0.042895122148234655 -0.03085395407367152
0.048005353438278275 -0.03197315198412812
0.05338784940224234 -0.03303765181085343
0.059039367825822475 -0.03404985139335142
0.06495650444564427 -0.03501098656058953
0.07113569499986394 -0.035921272901225196
0.07757321737514639 -0.03678013898836754
0.08426519384872727 -0.03758652439394288
0.09120759342420814 -0.03833921144366281
0.09839623425967753 -0.03903715797301436
0.10582678618669683 -0.03967979944627219
0.11349477331863145 -0.04026729256186877
0.12139557674675777 -0.04080067853618918
0.12952443732252045 -0.041281952091022873
0.1378764585242665 -0.041714031079311716
0.14644660940672616 -0.04210063089372963
0.15522972763146647 -0.04244605651507786
0.16422052257649067 -0.04275493251994482
0.17341357852311146 -0.043031896936540914
0.18280335791817703 -0.04328128803577176
0.19238420470968637 -0.04350685369933303
0.20215034775378343 -0.043711510875977466
0.2120959042910774 -0.0438971780138005
0.2222148834901989 -0.04406469665183948
0.23250119005645137 -0.044213850163706096
0.2429486279033891 -0.04434347869728998
0.2535509038851079 -0.044451680445252224
0.26430163158700104 -0.0445360813085325
0.27519433517269654 -0.04459414850671979
0.28622245328485874 -0.044623519337548254
0.29737934299750524 -0.044622314497936244
0.30865828381745486 -0.044589406331182954
0.320052481732506 -0.04452461599747085
0.33155507330389 -0.044428819577888204
0.3431591298005543 -0.044303951002907155
0.35485766137276875 -0.04415289876272731
0.36664362126255073 -0.04397930281752642
0.3785099100483679 -0.043787267148572076
0.3904493799215649 -0.04358101117755122
0.4024548389919357 -0.0433644891364906
0.41451905561984914 -0.043141009865206525
0.42663476277231926 -0.042912890131517334
0.43879466240039156 -0.04268117233754878
0.4509914298352198 -0.04244543256852798
0.46321771820016633 -0.042203697767874145
0.475466162836291 -0.04195248199197202
0.4877293857385438 -0.04168694196263795
0.4999999999999999 -0.0414011423265969
0.512270614261456 -0.041088411986511315
0.5245338371637088 -0.040741765356508315
0.5367822817998334 -0.04035435705081526
0.54900857016478 -0.039919935780982255
0.5612053375996082 -0.0394332633312981
0.5733652372276805 -0.03889046737436626
0.5854809443801506 -0.038289302309957966
0.5975451610080642 -0.037629299776430085
0.6095506200784349 -0.036911799341923825
0.6214900899516319 -0.03613985936897302
0.6333563787374491 -0.035318057356206675
0.645142338627231 -0.03445219741938332
0.6568408701994456 -0.03354894930301757
0.6684449266961098 -0.03261544789008059
0.6799475182674938 -0.03165888427486726
0.691341716182545 -0.03068611897891475
0.7026206570024947 -0.029703344942960803
0.713777546715141 -0.02871582284917212
0.7248056648273034 -0.027727704620743025
0.7356983684129987 -0.026741953237757604
0.746449096114892 -0.025760358990381232
0.7570513720966108 -0.02478364465479524
0.7674988099435485 -0.02381164545412722
0.7777851165098009 -0.0228435445705191
0.7879040957089227 -0.02187814176243675
0.7978496522462164 -0.02091413148703149
0.8076157952903136 -0.019950367813235628
0.8171966420818224 -0.018986096138679548
0.8265864214768883 -0.01802113593943194
0.8357794774235092 -0.017056004018695368
0.8447702723685334 -0.016091973446478666
0.8535533905932737 -0.015131069052546972
0.8621235414757333 -0.014176005445183234
0.8704755626774794 -0.013230077659683457
0.8786044232532422 -0.012297017395033773
0.8865052266813687 -0.011380829219320588
0.894173213813303 -0.010485621107578405
0.9016037657403225 -0.009615442353943722
0.9087924065757916 -0.008774139525463314
0.9157348061512727 -0.007965238035395148
0.9224267826248536 -0.007191853492547811
0.928864305000136 -0.00645663361632616
0.9350434955543556 -0.0057617285433838724
0.9409606321741775 -0.0051087850677945185
0.9466121505977576 -0.004498958932081642
0.9519946465617215 -0.003932938790513118
0.9571048778517655 -0.003410975856827104
0.9619397662556433 -0.0029329143843442465
0.9664963994173694 -0.0024982197877042363
0.9707720325915102 -0.0021060031344002196
0.9747640902965183 -0.001755042628350323
0.9784701678661044 -0.0014438043136734335
0.98188803289772 -0.0011704653309403967
0.985015626597272 -0.0009329435199183333
0.9878510650192642 -0.0007289369290691114
0.9903926402016152 -0.0005559759007120441
0.9926388211944706 -0.00041148897365588134
0.9945882549823906 -0.0002928820712475233
0.9962397672993549 -0.000197628554027343
0.9975923633360985 -0.00012336595834662982
0.998645228339345 -6.799384516122998e-05
0.9993977281025862 -2.976633279079065e-05
0.9998494093481021 -7.372703857669278e-06
1.0 0.0
