1.0 0.0
0.9998494093481021 2.3024147319738817e-05
0.9993977281025862 9.212892709457817e-05
0.998645228339345 0.00020741917748976654
0.9975923633360985 0.000369076856707066
0.9962397672993549 0.0005773502850488703
0.9945882549823906 0.0008325699492075078
0.9926388211944706 0.001135150403771178
0.9903926402016152 0.001485594897029237
0.9878510650192642 0.001884501647589143
0.985015626597272 0.002332571098094601
0.98188803289772 0.002830618309732167
0.9784701678661044 0.003379577894581686
0.9747640902965183 0.003980514440420716
0.9707720325915102 0.004634634542782562
0.9664963994173694 0.005343295976292616
0.9619397662556433 0.006108017395179055
0.9571048778517655 0.006930500775491937
0.9519946465617215 0.007812621409326684
0.9466121505977576 0.008756462518621584
0.9409606321741775 0.00976439422796512
0.9350434955543556 0.010838335080731815
0.928864305000136 0.011979016728394942
0.9224267826248536 0.013186067668310162
0.9157348061512727 0.01445876108945026
0.9087924065757916 0.015795836611789432
0.9016037657403225 0.01719573152345352
0.894173213813303 0.018656522209083443
0.8865052266813687 0.020175713562352753
0.8786044232532422 0.021750064310433005
0.8704755626774794 0.023375223951065765
0.8621235414757333 0.025045535950002983
0.8535533905932737 0.02675491834683105
0.8447702723685334 0.028498199628385755
0.8357794774235092 0.03027097277165653
0.8265864214768883 0.032068674421028016
0.8171966420818224 0.03388531423123653
0.8076157952903136 0.03571342131381954
0.7978496522462164 0.03754607343842471
0.7879040957089227 0.03937923262721727
0.7777851165098009 0.0412114627473782
0.7674988099435485 0.04304226161070212
0.7570513720966108 0.04487066741194914
0.746449096114892 0.046696072711953134
0.7356983684129987 0.04851893318886844
0.7248056648273034 0.050340513745173926
0.713777546715141 0.052161969484608904
0.7026206570024947 0.053983337882770405
0.691341716182545 0.05580380413640373
0.6799475182674938 0.057621235906178306
0.6684449266961098 0.05943220608998345
0.6568408701994456 0.06123046168091972
0.645142338627231 0.06300384555249923
0.6333563787374491 0.06474493775117672
0.6214900899516319 0.06645423432205055
0.6095506200784349 0.06813660828856644
0.5975451610080642 0.06979594104972119
0.5854809443801506 0.07143736261463556
0.5733652372276805 0.0730681612409643
0.5612053375996082 0.07469358866438675
0.54900857016478 0.07631378779095119
0.5367822817998334 0.07792501836883399
0.5245338371637088 0.07951615538012226
0.512270614261456 0.08107340820816049
0.4999999999999999 0.08258266741827901
0.4877293857385438 0.08403010478949738
0.475466162836291 0.08540622911399584
0.46321771820016633 0.08670483542669778
0.4509914298352198 0.08792487044617062
0.43879466240039156 0.08907056292535373
0.42663476277231926 0.0901483456697572
0.41451905561984914 0.09116687525756534
0.4024548389919357 0.09213528235689239
0.3904493799215649 0.0930617644222245
0.3785099100483679 0.09395183821593792
0.36664362126255073 0.09480586738963333
0.35485766137276875 0.09562370884681944
0.3431591298005543 0.09640540227561788
0.33155507330389 0.09714917107100804
0.320052481732506 0.09784944078116438
0.30865828381745486 0.09849972726500276
0.29737934299750524 0.09909326370656883
0.28622245328485874 0.09962168803698396
0.27519433517269654 0.10007452259027783
0.26430163158700104 0.10044127184677168
0.2535509038851079 0.10071242797893733
0.2429486279033891 0.10087667126008835
0.23250119005645137 0.10092080926459424
0.2222148834901989 0.10083229055640154
0.2120959042910774 0.10059995056528263
0.20215034775378343 0.10021352944962891
0.19238420470968637 0.09966389818237759
0.18280335791817703 0.09894340967507875
0.17341357852311146 0.09804591494801286
0.16422052257649067 0.09696684419914446
0.15522972763146647 0.09570347961250074
0.14644660940672616 0.09425541818614201
0.1378764585242665 0.09262471352681506
0.12952443732252045 0.09081503440585265
0.12139557674675777 0.0888313177569617
0.11349477331863145 0.08667998315170863
0.10582678618669683 0.08436878485693323
0.09839623425967753 0.08190621451241242
0.09120759342420814 0.07930159182885768
0.08426519384872727 0.07656523341677651
0.07757321737514639 0.07370744472098403
0.07113569499986394 0.07073747215393777
0.06495650444564427 0.06766382511988116
0.059039367825822475 0.06449672747953085
0.05338784940224234 0.0612458350043836
0.048005353438278275 0.057919577047340395
0.042895122148234655 0.054526929815412975
0.038060233744356575 0.05107877167714002
0.03350360058263052 0.047588127147189574
0.029227967408489597 0.04406940805224388
0.025235909703481607 0.04053785116615133
0.021529832133895532 0.03700837615877204
0.018111967102280024 0.03349018484757536
0.014984373402728013 0.02999332809822827
0.012148934980735715 0.02653525538694334
0.009607359798384785 0.02314029169344556
0.007361178805529334 0.01982955026542273
0.005411745017609493 0.016623490924130478
0.0037602327006450165 0.013499035995936035
0.0024076366639015356 0.010485897043949052
0.0013547716606548965 0.007651925745872918
0.0006022718974137975 0.004803928774106404
0.00015059065189787502 0.0025226241436296427
0.0 0.0
0.00015059065189787502 -0.0024416275696312424
0.0006022718974137975 -0.0045125397634795915
0.0013547716606548965 -0.006957486684292748
0.0024076366639015356 -0.009173186982317262
0.0037602327006450165 -0.011371898793361169
0.005411745017609493 -0.013435038707134037
0.007361178805529334 -0.015328463512118836
0.009607359798384785 -0.017106609615756264
0.012148934980735715 -0.018786429722304276
0.014984373402728013 -0.020410329206911836
0.018111967102280024 -0.02199579851615652
0.021529832133895532 -0.023534167131377518
0.025235909703481607 -0.025006586430605677
0.029227967408489597 -0.02639872569422064
0.03350360058263052 -0.0277026776055569
0.038060233744356575 -0.02891686140991327
0.042895122148234655 -0.03004580998141361
0.048005353438278275 -0.03110278031848466
0.05338784940224234 -0.032108318242724726
0.059039367825822475 -0.033075051275660454
0.06495650444564427 -0.034000025685285866
0.07113569499986394 -0.03487677665221961
0.07757321737514639 -0.03570293112129305
0.08426519384872727 -0.036477073824719715
0.09120759342420814 -0.037200550965679924
0.09839623425967753 -0.037875616593076034
0.10582678618669683 -0.0385040333980196
0.11349477331863145 -0.03908734554782151
0.12139557674675777 -0.039628884845363394
0.12952443732252045 -0.04013369466323504
0.1378764585242665 -0.04060658282736997
0.14644660940672616 -0.041050486265644
0.15522972763146647 -0.04146656568789208
0.16422052257649067 -0.04185703875859202
0.17341357852311146 -0.04222400400634948
0.18280335791817703 -0.042569505497303706
0.19238420470968637 -0.04289589590085887
0.20215034775378343 -0.04320561627213961
0.2120959042910774 -0.04350117156496416
0.2222148834901989 -0.04378484445598804
0.23250119005645137 -0.04405712137670179
0.2429486279033891 -0.04431580685109897
0.2535509038851079 -0.044558482443890116
0.26430163158700104 -0.04478198313171952
0.27519433517269654 -0.04498214397119123
0.28622245328485874 -0.04515422449730017
0.29737934299750524 -0.045293455642628204
0.30865828381745486 -0.04539398817507118
0.320052481732506 -0.0454496029373042
0.33155507330389 -0.045454968358071245
0.3431591298005543 -0.045406796229949725
0.35485766137276875 -0.045304364590608104
0.36664362126255073 -0.04514895288824627
0.3785099100483679 -0.04494357192258592
0.3904493799215649 -0.04469257482480181
0.4024548389919357 -0.0444011397914769
0.41451905561984914 -0.044074922769882875
0.42663476277231926 -0.04371833986033843
0.43879466240039156 -0.0433347642369004
0.4509914298352198 -0.0429274348384184
0.46321771820016633 -0.04249909410935038
0.475466162836291 -0.04204751772058379
0.4877293857385438 -0.041568189204314196
0.4999999999999999 -0.04105764634525899
0.512270614261456 -0.040515139372271046
0.5245338371637088 -0.039941797778503624
0.5367822817998334 -0.03934042526303559
0.54900857016478 -0.03871262455873188
0.5612053375996082 -0.038057232231404
0.5733652372276805 -0.03737110317646032
0.5854809443801506 -0.03664764218265199
0.5975451610080642 -0.03588414098060666
0.6095506200784349 -0.03508293345576633
0.6214900899516319 -0.034249110125236466
0.6333563787374491 -0.03339058838591223
0.645142338627231 -0.03251251276703032
0.6568408701994456 -0.03161757629908894
0.6684449266961098 -0.030710285532922346
0.6799475182674938 -0.02980028238747135
0.691341716182545 -0.028895018476457802
0.7026206570024947 -0.02799964710189204
0.713777546715141 -0.027117977447875113
0.7248056648273034 -0.026251745322809644
0.7356983684129987 -0.025397982004483892
0.746449096114892 -0.024552361787795435
0.7570513720966108 -0.023710973908998
0.7674988099435485 -0.02287069054759656
0.7777851165098009 -0.022028471344309603
0.7879040957089227 -0.021179963671496823
0.7978496522462164 -0.02032119759413321
0.8076157952903136 -0.01944988378355027
0.8171966420818224 -0.018565750100581525
0.8265864214768883 -0.017669947198486437
0.8357794774235092 -0.016764278369920563
0.8447702723685334 -0.01585219613771357
0.8535533905932737 -0.014938008695308026
0.8621235414757333 -0.014025480994902932
0.8704755626774794 -0.013118431045609107
0.8786044232532422 -0.012220402784411737
0.8865052266813687 -0.011334727952827436
0.894173213813303 -0.01046514608570155
0.9016037657403225 -0.009616386982847752
0.9087924065757916 -0.008792823756182046
0.9157348061512727 -0.0079981041755979
0.9224267826248536 -0.00723542226890597
0.928864305000136 -0.0065077419893168915
0.9350434955543556 -0.005817508624307194
0.9409606321741775 -0.0051664992483812415
0.9466121505977576 -0.004555859277529257
0.9519946465617215 -0.0039866816569993566
0.9571048778517655 -0.0034604895462920465
0.9619397662556433 -0.002978152183802617
0.9664963994173694 -0.0025397068273441186
0.9707720325915102 -0.002144461537160915
0.9747640902965183 -0.0017911341224986538
0.9784701678661044 -0.0014779636272152289
0.98188803289772 -0.0012028204298955563
0.985015626597272 -0.0009633158609806357
0.9878510650192642 -0.0007569035606946673
0.9903926402016152 -0.0005809743732705546
0.9926388211944706 -0.0004329475663738033
0.9945882549823906 -0.0003103485809885377
0.9962397672993549 -0.00021088204795068446
0.9975923633360985 -0.00013249552469632642
0.998645228339345 -7.343399953868312e-05
0.9993977281025862 -3.228685308233436e-05
0.9998494093481021 -8.018949727476191e-06
1.0 0.0
